force,emg
29.56055234806716,0.1763413338964145
29.56055234806716,0.17589225910052303
29.543113731995728,0.17565471776078323
29.543113731995728,0.1755221073128299
29.525675115924297,0.17556999423779693
29.508236499852874,0.17569548993120473
29.490797883781443,0.17572359718808428
29.473359267710013,0.17574767301615085
29.455920651638582,0.17581206587078577
29.43848203556716,0.1759145751040197
29.421043419495728,0.17590002189049272
29.386166187352874,0.17547127458425596
29.368727571281443,0.17461787271176785
29.351288955210013,0.17370759911246605
29.333850339138582,0.17287614584184446
29.31641172306716,0.17209182715609753
29.298973106995728,0.17129377725298778
29.264095874852874,0.170831879996439
29.246657258781443,0.16994742246554512
29.229218642710013,0.16879923783617812
29.211780026638582,0.1674814478416228
29.176902794495728,0.16614345930746052
29.159464178424297,0.16487274130640198
29.142025562352874,0.16357528651169928
29.124586946281443,0.16237278715740433
29.107148330210013,0.1615706891057264
29.107148330210013,0.16115519734359124
29.089709714138582,0.1608422899139196
29.089709714138582,0.16057043885221517
29.089709714138582,0.16037399067011868
29.089709714138582,0.16011601054841929
29.089709714138582,0.15975748566545236
29.089709714138582,0.1594964587785946
29.089709714138582,0.15926580704136015
29.089709714138582,0.1592407155950366
29.07227109806716,0.15934569676990795
29.07227109806716,0.15967760658510466
29.054832481995728,0.16003125705940668
29.037393865924297,0.16033489404877851
29.019955249852874,0.16059840171421316
29.002516633781443,0.16082335158185435
29.002516633781443,0.1610410652517939
28.985078017710013,0.16119367259380202
28.967639401638582,0.1614945934203593
28.95020078556716,0.16169279032832334
28.932762169495728,0.16181379449861602
28.932762169495728,0.16189462208000444
28.915323553424297,0.1616274010829415
28.915323553424297,0.16104327425589735
28.897884937352874,0.1606371890178076
28.897884937352874,0.16018138027227682
28.897884937352874,0.15956302251848664
28.897884937352874,0.15884475737601297
28.897884937352874,0.15818122890403669
28.897884937352874,0.15791181206832053
28.897884937352874,0.15789882910367598
28.897884937352874,0.15792803799018337
28.897884937352874,0.15775107891772752
28.880446321281443,0.15776698665095476
28.880446321281443,0.15799065419679678
28.880446321281443,0.1583298944411796
28.880446321281443,0.15865901437206165
28.863007705210013,0.159096213520793
28.863007705210013,0.1595110550593387
28.863007705210013,0.15999366537371734
28.863007705210013,0.16067093457853313
28.863007705210013,0.16164180498786732
28.863007705210013,0.16275423581720558
28.863007705210013,0.16392449094642253
28.863007705210013,0.16495696860959277
28.863007705210013,0.165871550068946
28.863007705210013,0.1670791948667389
28.880446321281443,0.16812640233319
28.880446321281443,0.16918851795924603
28.897884937352874,0.17013892885863394
28.897884937352874,0.17105045101183305
28.915323553424297,0.17173471255127476
28.932762169495728,0.1723999864133348
28.95020078556716,0.17349433835793882
28.985078017710013,0.17496204319401992
29.002516633781443,0.17625062891368043
29.037393865924297,0.1769898238348124
29.054832481995728,0.17729987465445615
29.089709714138582,0.17736346629057304
29.124586946281443,0.17723881399745323
29.159464178424297,0.1770198154102079
29.176902794495728,0.1764198846504371
29.19434141056716,0.1757072174744559
29.211780026638582,0.1748436490473228
29.229218642710013,0.17363613961134053
29.246657258781443,0.17224176393145646
29.246657258781443,0.17078968226487332
29.246657258781443,0.16959084099151098
29.229218642710013,0.16860221587673488
29.229218642710013,0.1678705343281239
29.19434141056716,0.1675153656609365
29.176902794495728,0.16754056249328034
29.142025562352874,0.1679306712830148
29.107148330210013,0.16869192544377584
29.07227109806716,0.16967612645408575
29.019955249852874,0.17058082826180215
28.985078017710013,0.17117289191999693
28.95020078556716,0.17155316132174722
28.915323553424297,0.17184840671301
28.880446321281443,0.172064689088584
28.845569089138582,0.17208783443753808
28.82813047306716,0.17222707345472177
28.810691856995728,0.17248117274987457
28.810691856995728,0.1726421130920746
28.793253240924297,0.17277963518130465
28.793253240924297,0.1728295525225492
28.775814624852874,0.17295626523904425
28.775814624852874,0.1732112978948273
28.758376008781443,0.17363186732409458
28.758376008781443,0.17428503801356013
28.740937392710013,0.1748069736653291
28.723498776638582,0.1752339911425462
28.723498776638582,0.17556093382516658
28.70606016056716,0.17594185216139993
28.70606016056716,0.17619373628119744
28.70606016056716,0.1767451390202652
28.70606016056716,0.1773421094932387
28.70606016056716,0.17803563291891483
28.70606016056716,0.17899061454889836
28.70606016056716,0.17977563512525851
28.70606016056716,0.18045102571429517
28.723498776638582,0.18079398466630314
28.740937392710013,0.18114171022311032
28.758376008781443,0.18151142591954927
28.775814624852874,0.18181304211665686
28.810691856995728,0.18202529259249117
28.82813047306716,0.18212537563792955
28.863007705210013,0.18201586541788659
28.897884937352874,0.18170551422766043
28.932762169495728,0.18136760440645688
28.95020078556716,0.1811892179892487
28.985078017710013,0.18077842607313635
29.019955249852874,0.1802335424501977
29.037393865924297,0.18010142355674044
29.07227109806716,0.18024740913075388
29.107148330210013,0.1805258908739285
29.124586946281443,0.18085831155216064
29.159464178424297,0.18143336906881957
29.176902794495728,0.18195580364631264
29.19434141056716,0.1822807310941814
29.211780026638582,0.18260246267226327
29.229218642710013,0.18287248984253693
29.246657258781443,0.18329007484265825
29.246657258781443,0.18373059860839241
29.246657258781443,0.18385729460692818
29.246657258781443,0.18379309834936036
29.229218642710013,0.18373898382692433
29.229218642710013,0.1838727758739194
29.211780026638582,0.18389370141152744
29.19434141056716,0.1836537453328747
29.176902794495728,0.18317289228396225
29.159464178424297,0.1829262817665035
29.142025562352874,0.18292711062110315
29.107148330210013,0.18265930190274282
29.089709714138582,0.18231390393903105
29.07227109806716,0.18229601452169045
29.054832481995728,0.18222986521795892
29.037393865924297,0.18210380252428804
29.037393865924297,0.18214964785779675
29.019955249852874,0.1821719877595171
29.019955249852874,0.18211213761637787
29.037393865924297,0.1817616416281776
29.037393865924297,0.18116116105910984
29.054832481995728,0.18085144143757384
29.07227109806716,0.18090594573131644
29.107148330210013,0.1810624214706848
29.124586946281443,0.18080896252674133
29.159464178424297,0.1804087303365672
29.19434141056716,0.17994842370916048
29.229218642710013,0.17940719461949445
29.264095874852874,0.1788730913684825
29.281534490924297,0.17859747656757174
29.31641172306716,0.17854961855925208
29.333850339138582,0.1782032016252019
29.351288955210013,0.1773805621267442
29.351288955210013,0.1765687754453198
29.368727571281443,0.17588760590860034
29.368727571281443,0.1753361988333653
29.368727571281443,0.17498275473127878
29.368727571281443,0.1749942448831509
29.368727571281443,0.1750570762542108
29.368727571281443,0.1750782240975397
29.368727571281443,0.17524007942216074
29.368727571281443,0.17528076874556967
29.386166187352874,0.1753289858163252
29.386166187352874,0.17539313313313018
29.386166187352874,0.17558697411669216
29.386166187352874,0.17601228549408546
29.386166187352874,0.17671916241342692
29.386166187352874,0.17739075203145924
29.368727571281443,0.17792194050018834
29.351288955210013,0.178083237661107
29.351288955210013,0.17799280940280882
29.333850339138582,0.17761723451721542
29.31641172306716,0.1771803401670564
29.298973106995728,0.17722780908003827
29.281534490924297,0.17775209848453444
29.264095874852874,0.1781952724251435
29.246657258781443,0.17912696588575414
29.246657258781443,0.1801101433206162
29.246657258781443,0.18120191219167958
29.229218642710013,0.18238469948813663
29.229218642710013,0.18330089262526048
29.229218642710013,0.1842267848080469
29.229218642710013,0.18530911121005472
29.229218642710013,0.18665429872186176
29.229218642710013,0.1883520280293631
29.229218642710013,0.1903053994451768
29.229218642710013,0.19209273059440912
29.229218642710013,0.19341995655840571
29.229218642710013,0.19469502633225264
29.229218642710013,0.19596954225371488
29.229218642710013,0.1973052052158434
29.229218642710013,0.19886740930363409
29.211780026638582,0.20038264591233318
29.211780026638582,0.20156203268828737
29.19434141056716,0.20270648859914614
29.19434141056716,0.20364799794235652
29.176902794495728,0.20420788076530838
29.142025562352874,0.20464951944659004
29.124586946281443,0.20480041222849354
29.107148330210013,0.20501189932595668
29.07227109806716,0.205088101971486
29.037393865924297,0.2050614695087124
29.019955249852874,0.20519069853440364
28.985078017710013,0.2053753640325258
28.95020078556716,0.20552203173083572
28.932762169495728,0.20567661566712714
28.897884937352874,0.20588287988166443
28.880446321281443,0.20595316122943547
28.863007705210013,0.2057582357314919
28.845569089138582,0.20573600102553022
28.845569089138582,0.2055737778761022
28.82813047306716,0.20506339715880448
28.82813047306716,0.20466020685698652
28.82813047306716,0.20460006996035038
28.82813047306716,0.20449956003462783
28.82813047306716,0.20429069289835255
28.82813047306716,0.20398369392101728
28.82813047306716,0.20368725323985307
28.82813047306716,0.20331425545493026
28.82813047306716,0.20297367463599972
28.82813047306716,0.20259513041458724
28.82813047306716,0.2020988009668785
28.82813047306716,0.20167224606550316
28.82813047306716,0.20124318063864033
28.810691856995728,0.2007630276138388
28.810691856995728,0.20021736450089242
28.793253240924297,0.1997219952383032
28.775814624852874,0.19916141680822289
28.758376008781443,0.19865994797896308
28.740937392710013,0.19812134575919177
28.723498776638582,0.19761768286296008
28.70606016056716,0.19744942043603908
28.671182928424297,0.19717835534556016
28.653744312352874,0.19643818094381665
28.636305696281443,0.1957476099197475
28.618867080210013,0.19503149150589774
28.58398984806716,0.19417946540218298
28.566551231995728,0.19338517608852718
28.549112615924297,0.19255434890936196
28.531673999852867,0.19177059370592575
28.514235383781443,0.19114639078064566
28.496796767710013,0.1900767956478936
28.479358151638582,0.18860329577060422
28.46191953556716,0.1870879368966688
28.444480919495728,0.18565209242575192
28.444480919495728,0.18445199548786423
28.427042303424297,0.1834005947672028
28.427042303424297,0.18258372864985753
28.409603687352867,0.18175089289424678
28.409603687352867,0.1807260721595096
28.409603687352867,0.17987209287324615
28.409603687352867,0.17914379471873404
28.409603687352867,0.17837052852811064
28.409603687352867,0.17751467684717456
28.409603687352867,0.1767633312327696
28.409603687352867,0.17616097271886763
28.409603687352867,0.17546198970479338
28.409603687352867,0.17451918428900154
28.409603687352867,0.1735650685944764
28.409603687352867,0.17270087130534126
28.409603687352867,0.17172595019043213
28.409603687352867,0.17104688544482644
28.409603687352867,0.1705742769784688
28.392165071281443,0.17010193228843443
28.392165071281443,0.16954315507521597
28.392165071281443,0.16867404464581937
28.374726455210013,0.16753906205623742
28.374726455210013,0.16638391073342618
28.357287839138582,0.16505130579289606
28.357287839138582,0.16387271329954398
28.357287839138582,0.16281930427427707
28.33984922306716,0.16197316486247437
28.33984922306716,0.16119271849341446
28.322410606995728,0.159978231800323
28.322410606995728,0.1585153207296657
28.322410606995728,0.15730490193794913
28.304971990924297,0.15568024670509173
28.304971990924297,0.15415458043302005
28.287533374852867,0.15260569953815556
28.287533374852867,0.15092423114684
28.270094758781443,0.149406026782156
28.252656142710013,0.1479560246898779
28.252656142710013,0.1464642552287026
28.235217526638582,0.14496785411989482
28.21777891056716,0.14328356870790535
28.200340294495728,0.1413001825402398
28.182901678424297,0.13938818186434082
28.165463062352867,0.13765578457634423
28.148024446281443,0.13630414654839731
28.130585830210013,0.13492409810449507
28.113147214138582,0.13337504766904557
28.113147214138582,0.1317031923162035
28.09570859806716,0.13018509476427065
28.09570859806716,0.1288737386081561
28.078269981995728,0.12759342041140298
28.078269981995728,0.1264985070812002
28.078269981995728,0.12547402258401769
28.078269981995728,0.12463011153655341
28.078269981995728,0.12393650956258558
28.078269981995728,0.12362232637976452
28.078269981995728,0.12367891698397557
28.078269981995728,0.12411559071526551
28.078269981995728,0.12472160976873896
28.078269981995728,0.12535430719030255
28.078269981995728,0.12606228467439728
28.078269981995728,0.12655542144133256
28.078269981995728,0.1270602796878243
28.078269981995728,0.12795471558622937
28.078269981995728,0.12918146082448143
28.078269981995728,0.1303746428670333
28.078269981995728,0.13150160729126747
28.09570859806716,0.13265747683557824
28.09570859806716,0.13361292055827043
28.113147214138582,0.13409073983056838
28.130585830210013,0.13435170979282404
28.148024446281443,0.13465738354010415
28.165463062352867,0.13491417936578123
28.165463062352867,0.1351703200229531
28.182901678424297,0.13571578802065778
28.200340294495728,0.136222578359217
28.21777891056716,0.1366207062654828
28.235217526638582,0.13719752724049702
28.235217526638582,0.13781676377425983
28.252656142710013,0.13850835399839634
28.270094758781443,0.1391051504344942
28.287533374852867,0.1396489810941698
28.304971990924297,0.1400651865003778
28.322410606995728,0.14087800378784004
28.33984922306716,0.14203739579186855
28.357287839138582,0.1430204237908067
28.374726455210013,0.14369701910703853
28.392165071281443,0.14402031036039717
28.427042303424297,0.14428685842591996
28.444480919495728,0.14449623410676546
28.46191953556716,0.14499778257108892
28.479358151638582,0.14569636857179252
28.496796767710013,0.14636598952711327
28.531673999852867,0.14692531342596443
28.549112615924297,0.147495233255243
28.566551231995728,0.1482449775078437
28.58398984806716,0.14901862428830934
28.618867080210013,0.1497991349063534
28.636305696281443,0.15048694602509305
28.671182928424297,0.15103822700852126
28.688621544495728,0.15159602540141914
28.70606016056716,0.15210903028315223
28.740937392710013,0.152573176082962
28.758376008781443,0.15288531648247833
28.775814624852874,0.153167463545168
28.793253240924297,0.1534439789094012
28.810691856995728,0.15360067965127358
28.82813047306716,0.15390894664708374
28.82813047306716,0.15429258811518787
28.82813047306716,0.1546781486396066
28.82813047306716,0.15497571463502097
28.82813047306716,0.15516478867933137
28.82813047306716,0.1555229436004607
28.810691856995728,0.15580622052947712
28.793253240924297,0.1563285037499669
28.758376008781443,0.15721787017184521
28.740937392710013,0.15832835854528568
28.70606016056716,0.1590531398782571
28.688621544495728,0.15955651729668135
28.653744312352874,0.16007425423888824
28.636305696281443,0.1605914870181244
28.618867080210013,0.16106798284756196
28.601428464138582,0.16147363573468076
28.58398984806716,0.1618277370049627
28.566551231995728,0.16221661857790393
28.566551231995728,0.16256905339980104
28.566551231995728,0.16274342247388346
28.566551231995728,0.16278072573430763
28.566551231995728,0.16290035823900187
28.566551231995728,0.16315695327447668
28.566551231995728,0.1634678448610915
28.58398984806716,0.16384042072654484
28.58398984806716,0.16427827806795287
28.58398984806716,0.1644166123705326
28.601428464138582,0.16447641597722934
28.601428464138582,0.1644801903951314
28.618867080210013,0.16447565280093077
28.618867080210013,0.16445386877083767
28.618867080210013,0.1644635600187539
28.618867080210013,0.164336173743441
28.618867080210013,0.1640335378144094
28.618867080210013,0.16378985200171844
28.618867080210013,0.1636663599656091
28.601428464138582,0.16391837631279818
28.58398984806716,0.16390288145495585
28.566551231995728,0.16379127983289776
28.549112615924297,0.163767132318358
28.514235383781443,0.1635787735787097
28.496796767710013,0.1632597145802137
28.46191953556716,0.16276992476281735
28.427042303424297,0.16236451431778562
28.392165071281443,0.16201429335475703
28.357287839138582,0.16171435327709383
28.322410606995728,0.16147919724625945
28.304971990924297,0.16155320134975848
28.270094758781443,0.16158379430072015
28.235217526638582,0.16128906233158563
28.200340294495728,0.16071252426248958
28.182901678424297,0.1598384153909281
28.148024446281443,0.1589491783440228
28.130585830210013,0.15800482203305802
28.09570859806716,0.15731054100162722
28.078269981995728,0.15671986776083952
28.060831365924297,0.15602712903163057
28.060831365924297,0.15526633507378002
28.043392749852867,0.15457490664452703
28.043392749852867,0.15407774312851183
28.025954133781443,0.15354423639378564
28.025954133781443,0.1528040705669071
28.008515517710013,0.1522892885102164
28.008515517710013,0.15183575028419474
27.991076901638582,0.15123042232608777
27.97363828556716,0.1508614084137915
27.97363828556716,0.15063549706459983
27.956199669495728,0.15014103915501484
27.956199669495728,0.14964841961451336
27.938761053424297,0.149126937028062
27.938761053424297,0.1486222023096308
27.938761053424297,0.14806479164898023
27.921322437352867,0.1474270136559572
27.921322437352867,0.14695311111848647
27.921322437352867,0.14647105684257533
27.921322437352867,0.1460768808458178
27.921322437352867,0.14526435877686103
27.903883821281443,0.14411499809448744
27.903883821281443,0.1431287912537887
27.903883821281443,0.1423345888862223
27.886445205210013,0.14154717491947505
27.886445205210013,0.14076709121659006
27.869006589138582,0.14023164186055606
27.869006589138582,0.13950315540887548
27.85156797306716,0.13864427053205042
27.834129356995728,0.13783709445540787
27.834129356995728,0.13728153442392957
27.816690740924297,0.13688467980966162
27.799252124852867,0.13628031827400797
27.781813508781443,0.13558746711066966
27.781813508781443,0.1348973727433527
27.764374892710013,0.13431596066432994
27.764374892710013,0.13405880307445944
27.746936276638582,0.133932341712326
27.746936276638582,0.13378617785359337
27.746936276638582,0.13392867823229654
27.746936276638582,0.13421378892469188
27.72949766056716,0.1345179959697227
27.72949766056716,0.13483633797431294
27.72949766056716,0.13496964753625665
27.72949766056716,0.13492055875919348
27.72949766056716,0.13478909858639915
27.72949766056716,0.13462622876682173
27.72949766056716,0.13458096428857708
27.72949766056716,0.13451337078940687
27.72949766056716,0.13442262941359118
27.72949766056716,0.13451613307379456
27.72949766056716,0.1343085383211026
27.72949766056716,0.13375488175461733
27.72949766056716,0.13327307033696809
27.72949766056716,0.13291207189702128
27.72949766056716,0.13257496626981916
27.72949766056716,0.13232345108814975
27.72949766056716,0.13229606203402228
27.72949766056716,0.13226164626030754
27.72949766056716,0.13229964179052678
27.72949766056716,0.1322966063224116
27.72949766056716,0.13229326404954544
27.746936276638582,0.1325435519024034
27.746936276638582,0.13305323479810058
27.746936276638582,0.133472886904228
27.746936276638582,0.1337046997763052
27.746936276638582,0.13395971807992468
27.746936276638582,0.13400368767818222
27.746936276638582,0.1339413316056765
27.746936276638582,0.13382966914823385
27.764374892710013,0.13386345028028546
27.764374892710013,0.13437053786944442
27.764374892710013,0.13521571064499996
27.764374892710013,0.13601237688518747
27.781813508781443,0.13675928372791873
27.781813508781443,0.13736130945668937
27.781813508781443,0.13795257108914544
27.799252124852867,0.1385860249177309
27.816690740924297,0.1393538872697078
27.816690740924297,0.1399711108474245
27.85156797306716,0.14026538159861957
27.869006589138582,0.1404997076965701
27.886445205210013,0.14082778868472562
27.903883821281443,0.14102845708187806
27.938761053424297,0.14127558695962777
27.956199669495728,0.14158711517772749
27.97363828556716,0.14189434604276724
28.008515517710013,0.14203474542286554
28.025954133781443,0.141991427130579
28.025954133781443,0.1419268059018961
28.043392749852867,0.1417709905460815
28.043392749852867,0.14140797840553584
28.043392749852867,0.14075900185404477
28.043392749852867,0.1401450157311403
28.043392749852867,0.13964919091583877
28.025954133781443,0.1392310247539424
28.025954133781443,0.13885528555979815
28.008515517710013,0.13858059684756832
27.991076901638582,0.1382442656784365
27.97363828556716,0.13801542016528034
27.938761053424297,0.13793946408625232
27.921322437352867,0.1377758887713771
27.886445205210013,0.13751087313642688
27.869006589138582,0.1371295367993467
27.834129356995728,0.13666670518972454
27.816690740924297,0.13632217822543957
27.799252124852867,0.13593703071539562
27.781813508781443,0.13566852295635606
27.764374892710013,0.13547630444978295
27.764374892710013,0.13516780974699216
27.764374892710013,0.13509524263948045
27.764374892710013,0.1352264654458449
27.764374892710013,0.1354220806200104
27.781813508781443,0.13567686962832187
27.781813508781443,0.1358237822748647
27.799252124852867,0.13610370873487823
27.816690740924297,0.1366974394238904
27.834129356995728,0.13775242692681386
27.85156797306716,0.13930433267163247
27.869006589138582,0.1410544413966567
27.886445205210013,0.14286269354605355
27.921322437352867,0.14458228356644817
27.956199669495728,0.14641983157699084
27.97363828556716,0.14827015798960427
28.008515517710013,0.15019973398751885
28.025954133781443,0.15197419418251695
28.043392749852867,0.15368778550645273
28.043392749852867,0.15526541808861996
28.043392749852867,0.15660594170944547
28.043392749852867,0.15799795984318843
28.043392749852867,0.1592745798744946
28.043392749852867,0.16032221954329512
28.025954133781443,0.1612559399717781
28.008515517710013,0.16229770437303778
27.991076901638582,0.163627748388859
27.97363828556716,0.16524470987809808
27.956199669495728,0.1665028316637258
27.921322437352867,0.16754664029422822
27.886445205210013,0.16841160517105538
27.869006589138582,0.16902405793519984
27.834129356995728,0.16956611014949236
27.816690740924297,0.17051782432985563
27.781813508781443,0.17145432314687006
27.764374892710013,0.17223369551968304
27.746936276638582,0.17289484745208974
27.72949766056716,0.17375904923031826
27.712059044495728,0.17459481422916145
27.712059044495728,0.17533174393905782
27.694620428424297,0.17599192892015203
27.694620428424297,0.17642618329376183
27.694620428424297,0.17702636281594814
27.694620428424297,0.17816649997185333
27.694620428424297,0.179540523802793
27.694620428424297,0.1807869108756387
27.694620428424297,0.18188546588182483
27.694620428424297,0.18313051304364236
27.694620428424297,0.18418696857521563
27.694620428424297,0.18481795433488157
27.694620428424297,0.18569345870608092
27.712059044495728,0.18642892240578532
27.712059044495728,0.1872995799698943
27.712059044495728,0.18806669228540487
27.712059044495728,0.18846961778342688
27.712059044495728,0.18861557592695918
27.712059044495728,0.18871886208426325
27.694620428424297,0.18881609208677444
27.694620428424297,0.1887949565109095
27.677181812352867,0.18891936710981855
27.677181812352867,0.1888787487582117
27.659743196281443,0.18896853501520303
27.659743196281443,0.18915249206055773
27.642304580210013,0.18901837078418945
27.642304580210013,0.189001421401083
27.624865964138582,0.1892657079719122
27.624865964138582,0.18942360983097098
27.60742734806716,0.18965605353537388
27.60742734806716,0.18986952533027399
27.589988731995728,0.19020874467224658
27.572550115924297,0.19063550204095944
27.572550115924297,0.1910140905087385
27.572550115924297,0.19155623614536466
27.555111499852867,0.19238779514801568
27.555111499852867,0.1932008955160266
27.555111499852867,0.19399860381598644
27.555111499852867,0.1948550910906378
27.555111499852867,0.19576020698157404
27.555111499852867,0.19664378100997915
27.555111499852867,0.19743960798710622
27.555111499852867,0.19819796652433308
27.555111499852867,0.19888354096564978
27.555111499852867,0.1994645472206473
27.555111499852867,0.19982998214702008
27.555111499852867,0.20009966947919305
27.555111499852867,0.20037107460158626
27.555111499852867,0.20065379136017764
27.555111499852867,0.2008893155444724
27.555111499852867,0.20107565254471266
27.555111499852867,0.2013538294777414
27.555111499852867,0.20171527270184222
27.555111499852867,0.20186295929884548
27.555111499852867,0.20157900711896093
27.555111499852867,0.20119100386800234
27.555111499852867,0.2007252237937021
27.555111499852867,0.2003035803205819
27.555111499852867,0.1999765914291487
27.555111499852867,0.19959685220810883
27.555111499852867,0.19911165429198546
27.555111499852867,0.1988354986284119
27.555111499852867,0.1988262163436957
27.555111499852867,0.19900585056870113
27.555111499852867,0.1990155438321435
27.555111499852867,0.19884482440986667
27.555111499852867,0.1990830226329425
27.555111499852867,0.19985526236183576
27.555111499852867,0.20108799784440218
27.555111499852867,0.20259296759121195
27.555111499852867,0.20359648821490325
27.555111499852867,0.20414015970591293
27.555111499852867,0.20400324334469663
27.555111499852867,0.20355042877585194
27.555111499852867,0.20352253433576675
27.555111499852867,0.2041663746521901
27.555111499852867,0.20487217371040856
27.555111499852867,0.2054378127846802
27.555111499852867,0.2057387580687122
27.555111499852867,0.20607186468371597
27.555111499852867,0.20622090380128186
27.555111499852867,0.20630193842115366
27.555111499852867,0.2068930580556008
27.555111499852867,0.20774305889066572
27.555111499852867,0.20871069636097414
27.555111499852867,0.2098012966467517
27.555111499852867,0.21080847166957653
27.537672883781443,0.21148970946355636
27.537672883781443,0.21167862914220073
27.520234267710013,0.21158132286860565
27.520234267710013,0.21191611050362008
27.520234267710013,0.2127569701563831
27.502795651638582,0.2139818834923073
27.502795651638582,0.21522651740870158
27.502795651638582,0.21629785980845642
27.502795651638582,0.21694773691354827
27.502795651638582,0.21741726986281842
27.502795651638582,0.21782459072809907
27.502795651638582,0.21807826446778916
27.502795651638582,0.21798125345069774
27.48535703556716,0.21783473943375295
27.48535703556716,0.21761498619350264
27.48535703556716,0.21759726198821489
27.467918419495728,0.2177692984847059
27.467918419495728,0.2178350200034228
27.450479803424297,0.21759936956558054
27.433041187352867,0.21721699608558498
27.415602571281443,0.21664825057858897
27.415602571281443,0.21623891868479259
27.398163955210013,0.21564285884756332
27.380725339138582,0.21498006222061947
27.36328672306716,0.21452209506105752
27.345848106995728,0.21407696563307677
27.345848106995728,0.2135994448510191
27.328409490924297,0.21296032556122968
27.310970874852867,0.2125004746457317
27.293532258781443,0.21212567132178353
27.293532258781443,0.21182191766616768
27.276093642710013,0.21148445246205091
27.258655026638582,0.2111294642470958
27.258655026638582,0.21082889575207373
27.258655026638582,0.21037833039561635
27.24121641056716,0.2099661077076172
27.24121641056716,0.209473036975918
27.24121641056716,0.20898715905957618
27.24121641056716,0.20848150955986855
27.24121641056716,0.2076455656351317
27.24121641056716,0.20674062821224354
27.24121641056716,0.20598294722695668
27.24121641056716,0.205177132973011
27.24121641056716,0.2044146686991474
27.24121641056716,0.20350567253235766
27.24121641056716,0.2022969509822469
27.24121641056716,0.2012286328371472
27.24121641056716,0.2001414140846825
27.258655026638582,0.19920442111371425
27.258655026638582,0.19832877880703031
27.258655026638582,0.19744731694195228
27.258655026638582,0.19665094950556955
27.258655026638582,0.19579811041438758
27.258655026638582,0.19501956890419883
27.258655026638582,0.19441592744346645
27.258655026638582,0.1938079528631823
27.258655026638582,0.19327237242061407
27.258655026638582,0.19289716154574016
27.258655026638582,0.19255031648491616
27.276093642710013,0.19234740885986207
27.276093642710013,0.19215258496606336
27.276093642710013,0.19193085674289453
27.293532258781443,0.1919070825920426
27.293532258781443,0.19207855695002585
27.310970874852867,0.19227743953627327
27.310970874852867,0.19255592116858344
27.328409490924297,0.1928828485829751
27.345848106995728,0.1932021076699901
27.36328672306716,0.19350775139517862
27.36328672306716,0.19389208367753574
27.380725339138582,0.19424164484103218
27.398163955210013,0.19470761707567896
27.398163955210013,0.19531803212592355
27.398163955210013,0.1957880599680187
27.415602571281443,0.19611037701809184
27.415602571281443,0.19622590181628263
27.415602571281443,0.19619010362684186
27.415602571281443,0.1959882075219702
27.398163955210013,0.19578941118383567
27.398163955210013,0.1951808069795146
27.398163955210013,0.1939903630003131
27.380725339138582,0.1922982358799693
27.36328672306716,0.19033769940134737
27.36328672306716,0.18862509645340014
27.345848106995728,0.18690797255024763
27.328409490924297,0.18534547119366038
27.310970874852867,0.18382996704304433
27.293532258781443,0.1818733619403024
27.276093642710013,0.17952159703533466
27.258655026638582,0.1771425574489887
27.258655026638582,0.17482747162596485
27.24121641056716,0.17281225376024337
27.24121641056716,0.17089052545453154
27.223777794495728,0.1690578205653284
27.223777794495728,0.16724969475879556
27.223777794495728,0.16515851434541598
27.223777794495728,0.1627228631061869
27.223777794495728,0.16057960511588068
27.223777794495728,0.1587513809324176
27.223777794495728,0.15705348893292587
27.223777794495728,0.15544481972713328
27.223777794495728,0.15439130455129496
27.223777794495728,0.15330398073679047
27.223777794495728,0.15183405629592395
27.206339178424297,0.14994166629133154
27.206339178424297,0.1478643697793859
27.206339178424297,0.14576225897332235
27.188900562352867,0.1438685281931776
27.171461946281443,0.14224839900667235
27.154023330210013,0.14116564894975514
27.136584714138582,0.14055616413290462
27.101707481995728,0.14024383385242667
27.066830249852867,0.1399920334749965
27.031953017710013,0.13971963676812185
26.99707578556716,0.13943175512255965
26.962198553424297,0.13904937062592868
26.927321321281443,0.13877724606333583
26.892444089138582,0.13858238278512724
26.87500547306716,0.13841555075661452
26.857566856995728,0.13817018708720305
26.840128240924297,0.13787489689410776
26.840128240924297,0.13751941404063447
26.840128240924297,0.13730079783188354
26.840128240924297,0.1372609035955702
26.840128240924297,0.13729579956413818
26.840128240924297,0.13751275281084935
26.840128240924297,0.13795886522507692
26.840128240924297,0.13849952655413172
26.840128240924297,0.13880057487528105
26.840128240924297,0.13903245586431545
26.822689624852867,0.1391776721919464
26.822689624852867,0.13939747821493928
26.822689624852867,0.13971859465125785
26.822689624852867,0.14007290706113207
26.822689624852867,0.14061334584720636
26.822689624852867,0.1412657563796732
26.822689624852867,0.14178456648389337
26.822689624852867,0.14208914206206655
26.822689624852867,0.1422479036371099
26.840128240924297,0.1423962822187114
26.840128240924297,0.14248526727809024
26.857566856995728,0.14261418195653122
26.857566856995728,0.1427619434483781
26.87500547306716,0.14293277058791526
26.892444089138582,0.14301205212287374
26.892444089138582,0.14306814671527388
26.909882705210013,0.14318088770780898
26.909882705210013,0.1432414610464031
26.909882705210013,0.1429682182620753
26.909882705210013,0.14265760249055526
26.909882705210013,0.14242565571806223
26.909882705210013,0.142022201474381
26.909882705210013,0.14165909265506788
26.909882705210013,0.14139699198331107
26.909882705210013,0.14113119415216746
26.909882705210013,0.14087854836976324
26.909882705210013,0.1407244093530994
26.909882705210013,0.14052098697247697
26.909882705210013,0.14037025546272927
26.909882705210013,0.14025168694770634
26.909882705210013,0.14019258270606072
26.909882705210013,0.14009483322451716
26.909882705210013,0.13985182939425295
26.892444089138582,0.13949274508764015
26.892444089138582,0.13896693249293862
26.892444089138582,0.13825688475145725
26.87500547306716,0.13754948240912404
26.87500547306716,0.13704099412914914
26.857566856995728,0.13659495135685923
26.857566856995728,0.1361343087602358
26.840128240924297,0.13574353413421222
26.840128240924297,0.135341788142666
26.822689624852867,0.13490697456277442
26.822689624852867,0.13461329859087198
26.805251008781443,0.13435631443490978
26.805251008781443,0.1340975628742313
26.787812392710013,0.13373162982899567
26.770373776638582,0.1334480664554711
26.770373776638582,0.1332740361771115
26.75293516056716,0.13319980638752535
26.735496544495728,0.13324896637377281
26.700619312352867,0.13359777579108303
26.683180696281443,0.13398250504791223
26.665742080210013,0.1344947770040585
26.648303464138582,0.13488502098334015
26.63086484806716,0.13518497103344365
26.595987615924297,0.13548605400822428
26.578548999852867,0.13581562243552686
26.578548999852867,0.13605364027009917
26.561110383781443,0.13603409167277675
26.543671767710013,0.13608546766174906
26.543671767710013,0.13614452343463665
26.543671767710013,0.1362037771458605
26.543671767710013,0.13621804298596193
26.543671767710013,0.13630229337486574
26.543671767710013,0.13636835309987916
26.543671767710013,0.13645283126645374
26.543671767710013,0.13622551688980838
26.543671767710013,0.13583782848207754
26.543671767710013,0.13564149680574478
26.543671767710013,0.13546662935173281
26.543671767710013,0.13491496153374705
26.543671767710013,0.13444775737255985
26.543671767710013,0.13424761054155385
26.543671767710013,0.13403940222177346
26.543671767710013,0.1338355352417836
26.543671767710013,0.13381623953010524
26.561110383781443,0.1337787317880322
26.561110383781443,0.13369431564047898
26.561110383781443,0.13329119267018108
26.578548999852867,0.13288626773910048
26.578548999852867,0.13222215268394044
26.595987615924297,0.1316812118296089
26.613426231995728,0.13136587384977302
26.613426231995728,0.13136344173823322
26.63086484806716,0.1313881083065974
26.648303464138582,0.13155068907750014
26.665742080210013,0.13141197759162512
26.665742080210013,0.13136282084808762
26.683180696281443,0.13146323309921637
26.683180696281443,0.13159388732835725
26.700619312352867,0.13175236968927154
26.700619312352867,0.13181199600159438
26.700619312352867,0.13192486378424745
26.718057928424297,0.1319361127573852
26.718057928424297,0.13156293605195918
26.718057928424297,0.13112087584520077
26.735496544495728,0.13067907634661818
26.735496544495728,0.13032662281351887
26.735496544495728,0.13015101619622949
26.75293516056716,0.12999602199848154
26.75293516056716,0.1297271326892584
26.75293516056716,0.12926662645158254
26.770373776638582,0.12871850384548678
26.770373776638582,0.1280158429140631
26.770373776638582,0.1273913826460943
26.770373776638582,0.12682875805335986
26.75293516056716,0.12665564787302386
26.75293516056716,0.12672934089822147
26.735496544495728,0.12693482477714932
26.718057928424297,0.12753602003380937
26.700619312352867,0.12858796002261594
26.683180696281443,0.12962992085629185
26.665742080210013,0.13044561529410018
26.63086484806716,0.13130181060062765
26.613426231995728,0.1321651598140024
26.595987615924297,0.13307462039510215
26.578548999852867,0.13400971206652945
26.578548999852867,0.13477744203175152
26.561110383781443,0.13556117243795138
26.561110383781443,0.13634221339728125
26.561110383781443,0.13715074108099062
26.561110383781443,0.13791869919945404
26.578548999852867,0.13855065740450864
26.595987615924297,0.13927994224999526
26.595987615924297,0.14019325661874574
26.613426231995728,0.14123435576155866
26.648303464138582,0.1426938059275903
26.665742080210013,0.14451390287389376
26.700619312352867,0.14631129188337938
26.718057928424297,0.14800401523410395
26.75293516056716,0.14949389691381856
26.787812392710013,0.15080549355056172
26.822689624852867,0.15206222446894305
26.87500547306716,0.15327690045954875
26.909882705210013,0.15442687154640636
26.944759937352867,0.1555991746261407
26.979637169495728,0.15672321712446413
27.014514401638582,0.15779405947451774
27.031953017710013,0.15875110372237847
27.066830249852867,0.15960267792045313
27.084268865924297,0.1602622831752828
27.101707481995728,0.1607301954827545
27.11914609806716,0.16105121890322904
27.11914609806716,0.16124065267696863
27.11914609806716,0.16152527881552176
27.11914609806716,0.1619785858949071
27.11914609806716,0.16243172828197888
27.101707481995728,0.162798662875656
27.084268865924297,0.16299096455684042
27.049391633781443,0.16333493450740638
27.014514401638582,0.16357431703322822
26.979637169495728,0.1637195708767804
26.944759937352867,0.1638911928906649
26.909882705210013,0.16409509117972343
26.87500547306716,0.16435001077268857
26.822689624852867,0.1645812694610447
26.805251008781443,0.16471249798369025
26.770373776638582,0.16473844056813372
26.735496544495728,0.16475690608163285
26.718057928424297,0.16468807582503206
26.700619312352867,0.16450833074252885
26.700619312352867,0.16444360606671346
26.683180696281443,0.16442319565535463
26.683180696281443,0.16441581261325666
26.665742080210013,0.1645568729534935
26.665742080210013,0.16475462804095664
26.648303464138582,0.1648593654321735
26.648303464138582,0.16476930291239367
26.63086484806716,0.1645661763320918
26.63086484806716,0.1644816290113826
26.613426231995728,0.16463258720399435
26.613426231995728,0.1647434251632824
26.613426231995728,0.16468509827195416
26.595987615924297,0.16482547516350873
26.595987615924297,0.16498843545965786
26.595987615924297,0.16491171105431707
26.578548999852867,0.16472119912857286
26.578548999852867,0.16447100304384057
26.578548999852867,0.164301368559769
26.578548999852867,0.16396620240691712
26.561110383781443,0.1636889669318504
26.561110383781443,0.16354443547304037
26.543671767710013,0.16344060227729884
26.543671767710013,0.16346617095581895
26.526233151638582,0.16368876772742455
26.50879453556716,0.1635412044312446
26.491355919495728,0.16331074121468264
26.473917303424297,0.1628872598666519
26.456478687352867,0.1622815172784242
26.439040071281443,0.16175160773808175
26.404162839138582,0.1612044987220861
26.38672422306716,0.1609177890842525
26.369285606995728,0.16069454044926473
26.369285606995728,0.16063888034965076
26.351846990924297,0.1606949874318732
26.334408374852867,0.16063745157931086
26.316969758781443,0.1606094730229423
26.316969758781443,0.16067340365033556
26.299531142710013,0.16070957891030202
26.282092526638582,0.16071955363645932
26.26465391056716,0.1607865142884384
26.247215294495728,0.16096518707834456
26.229776678424297,0.1611546791126976
26.212338062352867,0.16133315651392785
26.194899446281443,0.16137171586253507
26.177460830210013,0.16150041341690657
26.177460830210013,0.16141787695802842
26.160022214138582,0.16118551309035056
26.14258359806715,0.16072797252350302
26.14258359806715,0.1597870112086527
26.125144981995728,0.15842806106434992
26.125144981995728,0.15705913191103993
26.125144981995728,0.15591620700118594
26.125144981995728,0.15484790173075483
26.125144981995728,0.15384797483892937
26.125144981995728,0.15272282090972394
26.125144981995728,0.15148313159218904
26.125144981995728,0.15051877839390762
26.125144981995728,0.14958494254670435
26.125144981995728,0.1485772539560964
26.125144981995728,0.14766667211517423
26.125144981995728,0.1468172412317818
26.125144981995728,0.14605397413985363
26.125144981995728,0.14519186285868077
26.14258359806715,0.1441626668071877
26.14258359806715,0.14303375364209392
26.14258359806715,0.14147512925444702
26.160022214138582,0.13961277257900231
26.160022214138582,0.13772058711797708
26.160022214138582,0.13593156063274187
26.177460830210013,0.13432509890540517
26.177460830210013,0.13289576284298965
26.177460830210013,0.1314781348008782
26.177460830210013,0.13018090725829037
26.177460830210013,0.12901279211839883
26.177460830210013,0.12799383712530896
26.177460830210013,0.12709630888152806
26.177460830210013,0.12621040846212525
26.177460830210013,0.12538685296747523
26.177460830210013,0.12462734247541521
26.177460830210013,0.12395110725131119
26.160022214138582,0.12331441937774255
26.160022214138582,0.12283234267434329
26.160022214138582,0.12256754102409645
26.14258359806715,0.1222010457107493
26.14258359806715,0.12177903684279937
26.14258359806715,0.12160003452570693
26.125144981995728,0.12165560724501123
26.125144981995728,0.12176665784863511
26.107706365924297,0.1216303973372091
26.107706365924297,0.12140400311130069
26.090267749852867,0.12105742604235813
26.090267749852867,0.1205392078521848
26.07282913378144,0.12020953023102882
26.07282913378144,0.12007517388761343
26.07282913378144,0.1200006398972896
26.07282913378144,0.11991463840756064
26.055390517710013,0.12003560132461709
26.055390517710013,0.12024090349684288
26.055390517710013,0.1205379801393461
26.055390517710013,0.12083281493791148
26.055390517710013,0.12104018285818283
26.055390517710013,0.12145203371298954
26.055390517710013,0.12195331471669059
26.055390517710013,0.12250822738564653
26.055390517710013,0.12320540269395687
26.055390517710013,0.12400803136987368
26.055390517710013,0.12490861983444881
26.055390517710013,0.12572342191350394
26.055390517710013,0.12639082581590355
26.07282913378144,0.1268779639374382
26.07282913378144,0.12745127594213188
26.07282913378144,0.1280447713947937
26.07282913378144,0.12836651495843932
26.07282913378144,0.12856575213447038
26.07282913378144,0.12875422086633584
26.07282913378144,0.12889698725626475
26.07282913378144,0.12899129731970077
26.055390517710013,0.1291427046971057
26.037951901638582,0.12910196938364513
26.037951901638582,0.1290378417812181
26.020513285567155,0.1290472656109088
25.985636053424297,0.12894344237013042
25.96819743735287,0.12861623680499237
25.933320205210013,0.12814963265574314
25.915881589138582,0.12781696919485633
25.881004356995728,0.1278196961034957
25.863565740924297,0.12786243352439614
25.82868850878144,0.12794240110945654
25.811249892710013,0.12820174986569838
25.793811276638582,0.12864573503537854
25.776372660567155,0.12877432559434068
25.758934044495728,0.12874052096459412
25.758934044495728,0.1285910782431347
25.741495428424297,0.12833145772350874
25.741495428424297,0.12807399554490786
25.741495428424297,0.12784716239666707
25.741495428424297,0.12770404771950036
25.741495428424297,0.12772111853348783
25.758934044495728,0.12775052035201404
25.758934044495728,0.12776660601212514
25.793811276638582,0.12767244052810012
25.811249892710013,0.1277164757721651
25.82868850878144,0.1278769571011986
25.863565740924297,0.12803359732857875
25.898442973067155,0.12810743486134588
25.933320205210013,0.1281104120783363
25.96819743735287,0.12816069899550267
26.003074669495728,0.1281821535100149
26.037951901638582,0.12819596940901343
26.07282913378144,0.12827371133529958
26.090267749852867,0.1284266868814571
26.107706365924297,0.1284172701464364
26.125144981995728,0.12836851188179277
26.14258359806715,0.1282123247561135
26.160022214138582,0.12810105321800214
26.160022214138582,0.12820781801338943
26.177460830210013,0.128396679766738
26.177460830210013,0.12859900397756419
26.194899446281443,0.12899960162668275
26.194899446281443,0.12948709263588948
26.212338062352867,0.12992766559886304
26.212338062352867,0.13029244298428924
26.212338062352867,0.13067872602961034
26.229776678424297,0.1311856825282118
26.229776678424297,0.13172189943164062
26.229776678424297,0.13234426515253905
26.229776678424297,0.13302402320759765
26.229776678424297,0.1337090476446504
26.229776678424297,0.13427430010674785
26.229776678424297,0.13475739255701055
26.229776678424297,0.13528616990287198
26.229776678424297,0.1359885099438348
26.229776678424297,0.13664441969163882
26.229776678424297,0.13715844451934994
26.229776678424297,0.13745810299710245
26.229776678424297,0.1375282106661422
26.229776678424297,0.137695067333903
26.212338062352867,0.1379721914598877
26.212338062352867,0.13829789711858645
26.212338062352867,0.13860934275829032
26.212338062352867,0.13895983426371128
26.194899446281443,0.13919043775140263
26.194899446281443,0.13931924553876238
26.177460830210013,0.13941258953957364
26.160022214138582,0.13951979249967877
26.160022214138582,0.1394612458668984
26.14258359806715,0.13937010174895856
26.125144981995728,0.1393716902068752
26.107706365924297,0.13938288544400018
26.090267749852867,0.13938624729022517
26.07282913378144,0.13959984424089014
26.055390517710013,0.1397627846214886
26.037951901638582,0.13970862529996475
26.003074669495728,0.1394682315199683
25.96819743735287,0.13942948942265895
25.95075882128144,0.13937020747258055
25.915881589138582,0.13918318672532248
25.898442973067155,0.13897275379497775
25.863565740924297,0.13880655751704246
25.84612712485287,0.13863989102315072
25.82868850878144,0.13852407086614815
25.811249892710013,0.13825869991234585
25.793811276638582,0.13785201937423627
25.793811276638582,0.13727421489775016
25.793811276638582,0.13648075336891263
25.793811276638582,0.13569766826639637
25.793811276638582,0.13475668561944423
25.793811276638582,0.1338579213543748
25.811249892710013,0.1331326516798748
25.811249892710013,0.13254948905094982
25.82868850878144,0.13192454502866735
25.82868850878144,0.13132974677580062
25.84612712485287,0.13097143030134556
25.863565740924297,0.1307069288727735
25.881004356995728,0.13048169496987114
25.898442973067155,0.13049871101975902
25.933320205210013,0.13059154011309562
25.95075882128144,0.13067447594553605
25.96819743735287,0.13071249710098246
25.985636053424297,0.13075404035963423
26.003074669495728,0.1305295884721083
26.037951901638582,0.13045026243739746
26.037951901638582,0.13047408384990772
26.055390517710013,0.13066275944929195
26.07282913378144,0.13087162998873775
26.090267749852867,0.13089787031017647
26.090267749852867,0.13071640847447133
26.107706365924297,0.13047801958014918
26.107706365924297,0.13005717074713427
26.125144981995728,0.12950567730523332
26.125144981995728,0.12901970918408498
26.14258359806715,0.1285286269375515
26.14258359806715,0.12796397225160885
26.14258359806715,0.12745273127644796
26.14258359806715,0.12699749721130316
26.14258359806715,0.12659694182611034
26.14258359806715,0.1263206704950618
26.14258359806715,0.12584009270336813
26.14258359806715,0.12565293401896882
26.14258359806715,0.12574389061707195
26.14258359806715,0.12588251425067726
26.14258359806715,0.12588032239592203
26.14258359806715,0.12573918957039232
26.14258359806715,0.1258184688555406
26.14258359806715,0.12613274013404904
26.14258359806715,0.12655108233158163
26.125144981995728,0.12687693112967346
26.125144981995728,0.12741799778233112
26.107706365924297,0.1280264177306605
26.107706365924297,0.12857765779353197
26.090267749852867,0.12904569767824128
26.090267749852867,0.12956764158229214
26.07282913378144,0.13016678562718792
26.07282913378144,0.13098799768946912
26.055390517710013,0.1318882213580222
26.055390517710013,0.13268560527690748
26.055390517710013,0.13335747443671672
26.055390517710013,0.13382299652429505
26.055390517710013,0.13419008652030306
26.055390517710013,0.13427693724327278
26.055390517710013,0.134364258167383
26.055390517710013,0.1347120120381447
26.055390517710013,0.13501705595151772
26.055390517710013,0.13520004273917846
26.055390517710013,0.1351895599496356
26.055390517710013,0.13500434418904705
26.055390517710013,0.13466919297326735
26.055390517710013,0.13446338207437813
26.055390517710013,0.13436665324194033
26.055390517710013,0.1343546705349338
26.055390517710013,0.1342968890283154
26.055390517710013,0.13400867961767138
26.055390517710013,0.13365834876527924
26.055390517710013,0.1333674650606263
26.037951901638582,0.13314961503893866
26.020513285567155,0.1330737892772323
26.020513285567155,0.13288164472450906
26.003074669495728,0.13256894411924566
25.985636053424297,0.1323021620120086
25.96819743735287,0.13212309327174523
25.95075882128144,0.1320492116789457
25.933320205210013,0.13206816746417613
25.915881589138582,0.1321194073583835
25.898442973067155,0.13219726154442016
25.881004356995728,0.13223620238216563
25.863565740924297,0.13228711827676157
25.84612712485287,0.1320967365272104
25.811249892710013,0.13177890857761437
25.793811276638582,0.13143304896985294
25.776372660567155,0.13105768840880516
25.758934044495728,0.13057948304448716
25.758934044495728,0.13029192048222593
25.741495428424297,0.13032608292619086
25.72405681235287,0.13043373342263426
25.70661819628144,0.13035300656474583
25.70661819628144,0.13036152915045873
25.689179580210013,0.13034844752447536
25.689179580210013,0.1303415568735903
25.671740964138582,0.1304049353659188
25.671740964138582,0.1305065316730769
25.654302348067155,0.1304990913963942
25.654302348067155,0.13043868420987978
25.654302348067155,0.1305063880545168
25.636863731995728,0.13049530003031512
25.636863731995728,0.1305494077225961
25.636863731995728,0.1305511075753365
25.636863731995728,0.13069851146624034
25.636863731995728,0.1308519269211788
25.636863731995728,0.13091492758843593
25.636863731995728,0.13081415748584233
25.636863731995728,0.13061177005757058
25.636863731995728,0.13035576883306352
25.619425115924297,0.13024865874663216
25.619425115924297,0.13031766494228145
25.619425115924297,0.1304090673933658
25.619425115924297,0.1302636684665292
25.619425115924297,0.13003576353393878
25.619425115924297,0.12982637663366992
25.619425115924297,0.12970018428280292
25.619425115924297,0.12957745589358513
25.619425115924297,0.12953841147610162
25.619425115924297,0.12942758790661646
25.619425115924297,0.1291496240378298
25.636863731995728,0.12876578956373433
25.636863731995728,0.1283702897089234
25.654302348067155,0.12795452538646854
25.654302348067155,0.1276120757775092
25.671740964138582,0.12734232327788328
25.689179580210013,0.12710259778603245
25.70661819628144,0.1268636514839917
25.72405681235287,0.12675724239028002
25.741495428424297,0.126653539635627
25.741495428424297,0.12654128625800182
25.758934044495728,0.12643964786657663
25.758934044495728,0.12647512643929396
25.758934044495728,0.12645029445942707
25.776372660567155,0.12624728161504686
25.776372660567155,0.12614147435197967
25.758934044495728,0.1258985427370942
25.758934044495728,0.12542416697900977
25.741495428424297,0.1249630491092338
25.741495428424297,0.12447846294831041
25.72405681235287,0.12413510884097938
25.689179580210013,0.12365336065219394
25.671740964138582,0.12302813689166205
25.636863731995728,0.12233054781187083
25.60198649985287,0.12177290806974625
25.567109267710013,0.12104154011433413
25.532232035567155,0.12045899254821321
25.497354803424297,0.1201593091137044
25.47991618735287,0.12023993581952147
25.445038955210013,0.12059204087038182
25.410161723067155,0.12147045885365614
25.375284490924297,0.12278166492141553
25.34040725878144,0.12397395741364897
25.305530026638582,0.12484316323478407
25.270652794495724,0.12559248948943066
25.253214178424297,0.1263639290170501
25.21833694628144,0.12719433299034508
25.200898330210013,0.12820719949599807
25.183459714138582,0.12896497075733576
25.166021098067155,0.12947728715816467
25.148582481995724,0.1300262625439107
25.148582481995724,0.13088533062545712
25.148582481995724,0.13169633369572392
25.166021098067155,0.13255013782615152
25.166021098067155,0.13347481154353635
25.183459714138582,0.1346634632016827
25.200898330210013,0.13604574969401445
25.21833694628144,0.13735755656055051
25.253214178424297,0.13872067785762046
25.288091410567155,0.1402435075327959
25.305530026638582,0.1418691811935788
25.34040725878144,0.14338355701953343
25.375284490924297,0.1448728380363301
25.427600339138582,0.14609112063894708
25.46247757128144,0.14716438162192738
25.47991618735287,0.14816083408473465
25.514793419495724,0.1491046383715737
25.549670651638582,0.14986556125316633
25.567109267710013,0.1504087902840997
25.60198649985287,0.15086656848225222
25.619425115924297,0.151147343274652
25.636863731995728,0.15132862945499934
25.654302348067155,0.1514246483454369
25.654302348067155,0.15136152921401821
25.671740964138582,0.1513651468004289
25.671740964138582,0.15139098563601103
25.689179580210013,0.15144048570522242
25.689179580210013,0.15151921545501268
25.689179580210013,0.15169383199544892
25.671740964138582,0.15190103570996652
25.654302348067155,0.15190258252959488
25.636863731995728,0.15197660650319791
25.619425115924297,0.15227210991537812
25.58454788378144,0.1528249282207153
25.567109267710013,0.15348725961739376
25.532232035567155,0.1542316733040919
25.497354803424297,0.15505301280962022
25.46247757128144,0.1558318912161582
25.445038955210013,0.15667631439922988
25.410161723067155,0.1576218421389944
25.392723106995724,0.15846122042509497
25.375284490924297,0.1594608015075855
25.35784587485287,0.16049531217713944
25.34040725878144,0.161404399123488
25.34040725878144,0.16212797288301423
25.34040725878144,0.1627633201259628
25.34040725878144,0.16334428791805403
25.34040725878144,0.16419796947781112
25.34040725878144,0.165433201826905
25.34040725878144,0.16681956914421447
25.34040725878144,0.16799161613604302
25.34040725878144,0.16887494963962624
25.34040725878144,0.16960342147253862
25.34040725878144,0.17032557444247226
25.34040725878144,0.17114824160760003
25.34040725878144,0.17186605904840255
25.34040725878144,0.1726720068544998
25.34040725878144,0.1737354946456123
25.34040725878144,0.17498377135292606
25.35784587485287,0.17623051140513346
25.35784587485287,0.17735318780368262
25.375284490924297,0.17820795691393934
25.392723106995724,0.1788020782147329
25.410161723067155,0.17933434597919712
25.427600339138582,0.1798255939984649
25.445038955210013,0.1802237719033059
25.46247757128144,0.1805485626817253
25.47991618735287,0.18087139196042779
25.497354803424297,0.1810990721003225
25.514793419495724,0.18138577133560274
25.532232035567155,0.18178418150672998
25.549670651638582,0.18210735027011948
25.549670651638582,0.18229016993060754
25.567109267710013,0.18239672422660927
25.567109267710013,0.18246454692113584
25.58454788378144,0.18261225726808475
25.58454788378144,0.1826835510725263
25.58454788378144,0.18269522526214865
25.58454788378144,0.18270268027499628
25.58454788378144,0.18278812513812165
25.58454788378144,0.18288272571024697
25.567109267710013,0.18300387696734727
25.567109267710013,0.18309948536436255
25.549670651638582,0.1831067975701138
25.549670651638582,0.18295285609435244
25.532232035567155,0.18282895720366718
25.532232035567155,0.18258927437392547
25.514793419495724,0.18197744166309543
25.514793419495724,0.18099100120772338
25.497354803424297,0.17988042647757602
25.497354803424297,0.1782156260173184
25.47991618735287,0.17591835540777406
25.47991618735287,0.17355296029668416
25.47991618735287,0.17143325997014075
25.46247757128144,0.16938453846531418
25.46247757128144,0.16763651430628276
25.445038955210013,0.165902770102217
25.445038955210013,0.16414586711543278
25.445038955210013,0.162604937630452
25.427600339138582,0.1611888042189693
25.427600339138582,0.16000095407050988
25.427600339138582,0.1586077922572089
25.427600339138582,0.15732220834398802
25.410161723067155,0.15630556368146423
25.410161723067155,0.15518794676644282
25.410161723067155,0.15359127123042354
25.410161723067155,0.15170138238863118
25.410161723067155,0.14983324610289306
25.410161723067155,0.14792182090666625
25.410161723067155,0.1459274903784996
25.410161723067155,0.14386647962189963
25.410161723067155,0.14197494884720965
25.392723106995724,0.1400790897046762
25.392723106995724,0.1383599990935836
25.375284490924297,0.13699775406703774
25.375284490924297,0.13603174330877146
25.35784587485287,0.13513975061851932
25.35784587485287,0.1343778507519799
25.34040725878144,0.1337238791533444
25.34040725878144,0.13318291213644748
25.322968642710013,0.1327003142821777
25.322968642710013,0.13252659633052244
25.305530026638582,0.1325429796662202
25.305530026638582,0.13252903814491068
25.288091410567155,0.1325250356976071
25.288091410567155,0.13257636513565887
25.270652794495724,0.13270617979396798
25.270652794495724,0.13291212431457117
25.253214178424297,0.13318719606280155
25.253214178424297,0.1334079051674589
25.253214178424297,0.1336395023460255
25.253214178424297,0.13374784215048546
25.253214178424297,0.1334962268807494
25.253214178424297,0.13303539813798698
25.253214178424297,0.13258586223043828
25.23577556235287,0.13201648499176946
25.23577556235287,0.13126295660978002
25.23577556235287,0.130557315245677
25.21833694628144,0.12989477219767182
25.21833694628144,0.12924538286852963
25.200898330210013,0.12864201157386418
25.200898330210013,0.12789206822897775
25.183459714138582,0.12700898933576749
25.183459714138582,0.12608482380062824
25.166021098067155,0.12526345079556542
25.166021098067155,0.12464689575507137
25.148582481995724,0.12411579992956424
25.148582481995724,0.12331493771004533
25.131143865924297,0.12220048495466579
25.131143865924297,0.12087277044357421
25.131143865924297,0.1194666457429668
25.11370524985287,0.11819197823898261
25.11370524985287,0.11713022670414686
25.11370524985287,0.11618075383841966
25.11370524985287,0.1150601149780152
25.11370524985287,0.11407046090208868
25.11370524985287,0.11309676442125481
25.09626663378144,0.11188108211975432
25.09626663378144,0.1104268606265289
25.09626663378144,0.10888490698575101
25.09626663378144,0.1074178030059259
25.09626663378144,0.10629577368189581
25.078828017710013,0.10553069826683123
25.078828017710013,0.1049507729713981
25.078828017710013,0.1044325023148833
25.078828017710013,0.10407409095058247
25.078828017710013,0.10394439181646171
25.078828017710013,0.10393569482231553
25.078828017710013,0.10390101205883398
25.078828017710013,0.10378251729826309
25.078828017710013,0.10364169232624929
25.078828017710013,0.10362908559362435
25.078828017710013,0.10368304715144941
25.09626663378144,0.10377250610817947
25.09626663378144,0.10384020178642402
25.09626663378144,0.10371497067028161
25.09626663378144,0.10369442575169095
25.09626663378144,0.10390542751245935
25.09626663378144,0.10414415722215091
25.09626663378144,0.10429492704681081
25.09626663378144,0.10440742652962974
25.09626663378144,0.10444275809541675
25.09626663378144,0.10444648033275009
25.09626663378144,0.10449377565885007
25.09626663378144,0.10452474477265257
25.09626663378144,0.1045599411938248
25.09626663378144,0.10466363945725483
25.09626663378144,0.10487903820684186
25.078828017710013,0.10537135899553267
25.078828017710013,0.1056581977053544
25.078828017710013,0.10594564941919396
25.078828017710013,0.10621168018039957
25.078828017710013,0.10644500434985961
25.061389401638582,0.10680636328987364
25.061389401638582,0.10736413028119877
25.061389401638582,0.10786673092495389
25.061389401638582,0.108200052949646
25.061389401638582,0.1085268982406189
25.061389401638582,0.10882594181499451
25.061389401638582,0.10909141892255755
25.061389401638582,0.1090434830849893
25.078828017710013,0.10893991602649038
25.078828017710013,0.10901211094727883
25.078828017710013,0.10907403461817594
25.078828017710013,0.10934033721104584
25.078828017710013,0.10965996559931625
25.078828017710013,0.10998547294563463
25.078828017710013,0.11037974791669616
25.09626663378144,0.11079013738283905
25.09626663378144,0.11114361876174264
25.09626663378144,0.11144649321369338
25.11370524985287,0.11180391908763654
25.11370524985287,0.1121420818663729
25.11370524985287,0.1124305592266106
25.131143865924297,0.11248938318676203
25.131143865924297,0.11227071830558584
25.148582481995724,0.11194940819377726
25.148582481995724,0.11158027303846203
25.166021098067155,0.11120349573461583
25.166021098067155,0.11096083170802924
25.166021098067155,0.11070825439660131
25.166021098067155,0.11026853247256618
25.166021098067155,0.10978550246749706
25.166021098067155,0.10937885163480986
25.166021098067155,0.10905742154945387
25.166021098067155,0.10869672333982099
25.166021098067155,0.10838613303708888
25.166021098067155,0.1079704933661925
25.166021098067155,0.10737302899051074
25.166021098067155,0.10685667335708467
25.183459714138582,0.10642796402918869
25.183459714138582,0.10613245766533233
25.183459714138582,0.1060062724456741
25.183459714138582,0.10611853582610668
25.183459714138582,0.10641854747787101
25.183459714138582,0.1069485677300839
25.200898330210013,0.10754155275395053
25.200898330210013,0.10812956056449297
25.200898330210013,0.10858125294554367
25.21833694628144,0.10895481710411431
25.21833694628144,0.10916651312807789
25.21833694628144,0.1093698569324576
25.21833694628144,0.10974634780171183
25.21833694628144,0.11022068763091565
25.21833694628144,0.1106848249225116
25.200898330210013,0.11101770961776043
25.200898330210013,0.11129350213254688
25.183459714138582,0.1116210610989797
25.166021098067155,0.11208859366095672
25.148582481995724,0.11270773722454855
25.131143865924297,0.1132436041270937
25.11370524985287,0.11371550836282182
25.09626663378144,0.11406392822966464
25.078828017710013,0.11430304321919818
25.043950785567155,0.11455608850665336
25.026512169495724,0.11462879996848802
25.009073553424297,0.11461916704195171
24.99163493735287,0.11468740170494404
24.97419632128144,0.11474454044069964
24.956757705210013,0.11509076510756716
24.956757705210013,0.11567214269837295
24.939319089138582,0.11618073409259815
24.921880473067155,0.11669461869115083
24.904441856995724,0.11717786678297325
24.887003240924297,0.11758593459686341
24.85212600878144,0.11786713605905207
24.834687392710013,0.11791697030470936
24.817248776638582,0.11790749983673843
24.799810160567155,0.11806499204056459
24.782371544495724,0.11853266275838313
24.764932928424297,0.11898896679504482
24.764932928424297,0.11933250175616533
24.74749431235287,0.1197155357602363
24.74749431235287,0.12016524683265017
24.74749431235287,0.12063773582126015
24.74749431235287,0.12124852278600913
24.74749431235287,0.12178358261678321
24.74749431235287,0.12204846165979238
24.74749431235287,0.12228135963443815
24.74749431235287,0.12278332621005683
24.74749431235287,0.12355675140155115
24.764932928424297,0.12434865926920853
24.764932928424297,0.1251053216626002
24.764932928424297,0.12590838812915267
24.764932928424297,0.1266427446287374
24.764932928424297,0.12734516938461365
24.782371544495724,0.1280554766649023
24.782371544495724,0.12873747782653708
24.782371544495724,0.12923897418450836
24.782371544495724,0.12981239121918253
24.799810160567155,0.13042978490976428
24.799810160567155,0.13099337380160037
24.817248776638582,0.13153722489800285
24.817248776638582,0.13196748678320258
24.834687392710013,0.13214109943300734
24.834687392710013,0.1320782346068941
24.834687392710013,0.1322084238415172
24.85212600878144,0.13237930509017798
24.85212600878144,0.1326820239952227
24.85212600878144,0.13298193683007542
24.85212600878144,0.1333897978345679
24.85212600878144,0.1337623659026736
24.85212600878144,0.13397011368740624
24.85212600878144,0.13396299489679062
24.85212600878144,0.13376432724304904
24.85212600878144,0.13358979881561914
24.85212600878144,0.13339366073093223
24.85212600878144,0.1330981179000265
24.85212600878144,0.13278757368814886
24.85212600878144,0.13250320108495897
24.834687392710013,0.13229731457021307
24.834687392710013,0.13199910166787926
24.834687392710013,0.13167028525109134
24.817248776638582,0.1313603123900447
24.817248776638582,0.13122171767447774
24.817248776638582,0.13126360840702997
24.799810160567155,0.13156070948038948
24.799810160567155,0.13204050279016302
24.799810160567155,0.1326731224330217
24.799810160567155,0.13308378870534454
24.799810160567155,0.13359498991293509
24.799810160567155,0.13424000752320409
24.799810160567155,0.1350585604818212
24.799810160567155,0.13621212826176407
24.799810160567155,0.13748349356058767
24.799810160567155,0.1389530397123414
24.782371544495724,0.14025671035048226
24.782371544495724,0.14141841724512152
24.782371544495724,0.14247432942685936
24.782371544495724,0.14338619824198592
24.782371544495724,0.14452182158184984
24.782371544495724,0.14563970778303986
24.782371544495724,0.14681487274692337
24.764932928424297,0.14777974777691852
24.764932928424297,0.14825995171016415
24.764932928424297,0.14849865380477273
24.764932928424297,0.14865000912742043
24.764932928424297,0.1486879623162409
24.764932928424297,0.1487080821002418
24.764932928424297,0.14857970553084263
24.764932928424297,0.14848430821994585
24.764932928424297,0.14846131685107627
24.764932928424297,0.14840644493159366
24.764932928424297,0.1482685592274968
24.764932928424297,0.14809807537505962
24.764932928424297,0.14797942994692864
24.764932928424297,0.14797823988192327
24.74749431235287,0.14790270593279345
24.74749431235287,0.1476229333863891
24.73005569628144,0.14721610879775018
24.712617080210013,0.14684447350391266
24.712617080210013,0.1465081706847714
24.695178464138582,0.1461871876006693
24.660301231995724,0.14605821493435237
24.642862615924297,0.14615576258154214
24.62542399985287,0.14648098222182543
24.60798538378144,0.1468988019683929
24.573108151638582,0.1473309920840536
24.555669535567155,0.14792565166471075
24.538230919495724,0.14824111872480217
24.50335368735287,0.14827479493825946
24.48591507128144,0.14811162208505851
24.468476455210013,0.14775175382186517
24.451037839138582,0.14746022101780365
24.433599223067155,0.14749447235352328
24.416160606995724,0.14765408273535846
24.416160606995724,0.14784228774307262
24.398721990924297,0.14808003162501535
24.398721990924297,0.14821587611876383
24.381283374852867,0.14812512346782494
24.381283374852867,0.14804344608197995
24.381283374852867,0.14795895010659446
24.381283374852867,0.1477156674006225
24.381283374852867,0.14736060456681024
24.381283374852867,0.14690677067262922
24.381283374852867,0.14656667954286628
24.381283374852867,0.14647483092451716
24.381283374852867,0.14663569744144045
24.381283374852867,0.1467536218379214
24.381283374852867,0.14661378211506676
24.381283374852867,0.14629322421606009
24.381283374852867,0.1458954691772666
24.381283374852867,0.14547828554078993
24.381283374852867,0.14508206831483594
24.381283374852867,0.14509412515522735
24.381283374852867,0.14528930248345462
24.381283374852867,0.14536242301635915
24.381283374852867,0.14548255278503575
24.381283374852867,0.14552902406903218
24.381283374852867,0.14547136091994145
24.381283374852867,0.14529983517950978
24.381283374852867,0.1453053741224963
24.381283374852867,0.14543303983524666
24.381283374852867,0.14584884229703451
24.381283374852867,0.14636649712983107
24.381283374852867,0.14693614624497298
24.381283374852867,0.1472590111126632
24.381283374852867,0.1475556930092094
24.381283374852867,0.14786054851297598
24.381283374852867,0.14819778467730338
24.381283374852867,0.14865937827988554
24.36384475878144,0.14928477345970947
24.36384475878144,0.14988852267623853
24.36384475878144,0.1504105346664272
24.346406142710013,0.15099081909040948
24.346406142710013,0.15151307507199355
24.346406142710013,0.1521088378772942
24.346406142710013,0.15289770994893978
24.328967526638582,0.1539385053602958
24.328967526638582,0.1550870132227037
24.311528910567155,0.15607306287699585
24.311528910567155,0.15713567846429627
24.311528910567155,0.15827513796161663
24.294090294495724,0.15942333217326748
24.294090294495724,0.16040116497156573
24.294090294495724,0.16132699085722166
24.276651678424297,0.16204548806056202
24.276651678424297,0.1625938689420058
24.276651678424297,0.16294642052436772
24.276651678424297,0.16323625112818094
24.259213062352867,0.16341958402317533
24.259213062352867,0.16334776722242028
24.259213062352867,0.16308232643767825
24.259213062352867,0.16265544145016042
24.24177444628144,0.16206067367233187
24.24177444628144,0.1612672039613487
24.224335830210013,0.16046152848708883
24.206897214138582,0.15971261684931745
24.206897214138582,0.15906667254719822
24.189458598067155,0.1584438187690409
24.172019981995724,0.1574865218530743
24.172019981995724,0.15650288431620435
24.154581365924297,0.15539788397052143
24.137142749852867,0.15418182604221928
24.137142749852867,0.15315390222705985
24.11970413378144,0.15249000126216639
24.102265517710013,0.15238748551094974
24.084826901638582,0.15238860512391728
24.067388285567155,0.15250313816621303
24.049949669495724,0.15282350306052925
24.032511053424297,0.15315638712947632
24.015072437352867,0.1534370618930912
23.99763382128144,0.1538318810944071
23.980195205210013,0.1545631949380914
23.962756589138582,0.15541546919428226
23.962756589138582,0.15634486954047905
23.945317973067155,0.15726372731299365
23.945317973067155,0.15804431258950677
23.945317973067155,0.1588426645336811
23.945317973067155,0.159735741830313
23.945317973067155,0.1607781588582192
23.945317973067155,0.16206179316770977
23.945317973067155,0.1634227525228138
23.945317973067155,0.16470193723146992
23.945317973067155,0.16569451206301045
23.945317973067155,0.1664627073410844
23.945317973067155,0.16697219832572596
23.962756589138582,0.16728303513377837
23.962756589138582,0.16759574724540052
23.962756589138582,0.16809325259898547
23.980195205210013,0.16852452792502443
23.980195205210013,0.1689566210309595
23.99763382128144,0.16940470892786352
23.99763382128144,0.16962915502726467
24.015072437352867,0.1696126506573507
24.032511053424297,0.16941041879474064
24.067388285567155,0.16921681343870407
24.084826901638582,0.16892782252452115
24.102265517710013,0.16862683714706905
24.11970413378144,0.16851830382298716
24.137142749852867,0.16839315801100097
24.154581365924297,0.16826770939740088
24.172019981995724,0.1682658896295358
24.189458598067155,0.1684082948072072
24.189458598067155,0.16863411571711148
24.206897214138582,0.16859931742665032
24.224335830210013,0.1682609921292978
24.24177444628144,0.16771052768199302
24.259213062352867,0.16714552960129372
24.276651678424297,0.16666449714897685
24.294090294495724,0.16612231501220417
24.294090294495724,0.16558430226098378
24.311528910567155,0.1650604179333229
24.328967526638582,0.16463347770249062
24.328967526638582,0.16414852348692907
24.346406142710013,0.16359731859917365
24.346406142710013,0.16306034064550629
24.346406142710013,0.16242325189345566
24.346406142710013,0.16192372455567258
24.346406142710013,0.16165359331104281
24.346406142710013,0.16152155917525104
24.346406142710013,0.16126173724210094
24.328967526638582,0.16091864457257832
24.328967526638582,0.1603846414434455
24.311528910567155,0.15980577202566346
24.311528910567155,0.1594001459949721
24.294090294495724,0.15911137651266238
24.276651678424297,0.15893205038483366
24.24177444628144,0.1586266139010378
24.224335830210013,0.158150915401559
24.206897214138582,0.1574926842129656
24.189458598067155,0.15693323512760654
24.172019981995724,0.15684171825547089
24.154581365924297,0.1571792749455488
24.137142749852867,0.15772599588849393
24.137142749852867,0.15828640411214454
24.11970413378144,0.15885302737280507
24.11970413378144,0.15922993166677457
24.11970413378144,0.15914067873447213
24.11970413378144,0.15885405226727492
24.11970413378144,0.15863515094679742
24.11970413378144,0.1583856495239927
24.102265517710013,0.15820748496221843
24.102265517710013,0.15825526673943408
24.102265517710013,0.15867058479205315
24.084826901638582,0.15907305756284784
24.067388285567155,0.15929612290031306
24.067388285567155,0.15949199889153173
24.049949669495724,0.15960420036956607
24.032511053424297,0.15976438580135946
24.015072437352867,0.159854231400911
23.99763382128144,0.1599283785733199
23.980195205210013,0.15982299188786292
23.962756589138582,0.1597971135975141
23.962756589138582,0.1602126659096377
23.945317973067155,0.16104198525617394
23.927879356995724,0.16235844102743155
23.927879356995724,0.1639540178231259
23.927879356995724,0.16549135529862583
23.910440740924297,0.16709590629220072
23.910440740924297,0.16873226292860566
23.910440740924297,0.17067861671387008
23.910440740924297,0.17312125308935808
23.910440740924297,0.17615641781948477
23.910440740924297,0.17957043912347379
23.910440740924297,0.18257286786737642
23.927879356995724,0.18467568850251379
23.945317973067155,0.1866292622303874
23.962756589138582,0.18826601862453618
23.980195205210013,0.18963350855895758
24.015072437352867,0.19083983543743682
24.032511053424297,0.19183031478431814
24.049949669495724,0.19243304990744883
24.084826901638582,0.19255681034639144
24.102265517710013,0.1924521302883148
24.11970413378144,0.1921198811266708
24.137142749852867,0.19164812738900372
24.137142749852867,0.19128153242354085
24.154581365924297,0.19086675808743675
24.154581365924297,0.19035979419275556
24.154581365924297,0.18977169075004252
24.154581365924297,0.1890190089797258
24.154581365924297,0.1884184996833157
24.137142749852867,0.1878890276446716
24.137142749852867,0.18756325964582946
24.11970413378144,0.18748613289999652
24.11970413378144,0.18774142585999687
24.102265517710013,0.1879571514380597
24.084826901638582,0.18795416090362874
24.049949669495724,0.18764629364139088
24.032511053424297,0.18736860275381428
23.99763382128144,0.18708022880655784
23.980195205210013,0.18679383678527706
23.945317973067155,0.18660810545049936
23.927879356995724,0.18652212400701193
23.910440740924297,0.18656253855943572
23.87556350878144,0.18672098196911713
23.858124892710013,0.18695940623314292
23.840686276638582,0.18717459842232864
23.823247660567155,0.18716624502540827
23.805809044495724,0.18723074845255494
23.788370428424297,0.18739134059948695
23.770931812352867,0.18748948681297575
23.770931812352867,0.18761749125667818
23.75349319628144,0.18792922845913537
23.736054580210013,0.18820979194134685
23.718615964138582,0.18843239184877467
23.718615964138582,0.1886852219998347
23.701177348067155,0.18902812558110121
23.683738731995724,0.1893904497417411
23.666300115924297,0.1896573373847545
23.648861499852867,0.18991706751346654
23.63142288378144,0.1902136908402449
23.63142288378144,0.1903164672640329
23.613984267710013,0.19012698362356711
23.596545651638582,0.18982156065183542
23.579107035567155,0.18953325224290188
23.561668419495724,0.18924569850298667
23.561668419495724,0.188906333730813
23.544229803424297,0.1884177999671067
23.544229803424297,0.18779928657195855
23.544229803424297,0.1872615454147627
23.526791187352867,0.18683861352953643
23.526791187352867,0.18634628049689528
23.526791187352867,0.18587510459564327
23.526791187352867,0.18529479628451642
23.526791187352867,0.18483721607012726
23.526791187352867,0.18420505696311454
23.526791187352867,0.18362146532930307
23.526791187352867,0.18307181879637274
23.526791187352867,0.18254356758079798
23.544229803424297,0.18182766297115568
23.544229803424297,0.18092700116622762
23.561668419495724,0.17980817800272986
23.579107035567155,0.1784277019993319
23.596545651638582,0.1770760206665862
23.613984267710013,0.1758711041468026
23.613984267710013,0.17471343709149734
23.63142288378144,0.1737545445542226
23.648861499852867,0.17290069654411283
23.648861499852867,0.17220181341313906
23.666300115924297,0.17157098754057515
23.666300115924297,0.17092389855214263
23.666300115924297,0.17019747549380337
23.666300115924297,0.16927025724129804
23.666300115924297,0.16816842682966823
23.666300115924297,0.16715480680295142
23.666300115924297,0.16617846186484378
23.666300115924297,0.1653058549361719
23.666300115924297,0.1645662850675547
23.666300115924297,0.16408927081861172
23.666300115924297,0.16368437205706304
23.666300115924297,0.16341700907010676
23.666300115924297,0.16310802300684607
23.666300115924297,0.16259433984678645
23.666300115924297,0.1617359068386703
23.666300115924297,0.16041033861574078
23.648861499852867,0.1588205986994792
23.648861499852867,0.15728668336078128
23.63142288378144,0.15564126697782815
23.63142288378144,0.15391014809254533
23.613984267710013,0.1517515551582908
23.596545651638582,0.14905503733777423
23.579107035567155,0.1459519017680593
23.561668419495724,0.14253591081000336
23.561668419495724,0.13920272988525303
23.544229803424297,0.13620225670141523
23.526791187352867,0.1333193357187737
23.50935257128144,0.1307240964828338
23.491913955210013,0.12836640851423792
23.474475339138582,0.12631223836593913
23.474475339138582,0.12450071667778272
23.457036723067155,0.12285020555687945
23.439598106995724,0.121450805118379
23.422159490924297,0.12025665234091609
23.404720874852867,0.11921426347401198
23.38728225878144,0.11834081075942329
23.369843642710013,0.11762672480066846
23.352405026638582,0.11708231403935161
23.317527794495724,0.11651849181510394
23.300089178424297,0.11603485552421855
23.282650562352867,0.11551169223742169
23.247773330210013,0.11487055719336703
23.230334714138582,0.11430940479434283
23.212896098067155,0.11370243892428354
23.195457481995724,0.11283390401623018
23.178018865924297,0.11181296478648216
23.160580249852867,0.11095515463595894
23.160580249852867,0.11039369678955054
23.14314163378144,0.11000252046997049
23.14314163378144,0.10975178014172343
23.12570301771001,0.10973973689317608
23.12570301771001,0.11004139796948348
23.12570301771001,0.11055337145378513
23.12570301771001,0.11108922083184411
23.12570301771001,0.1115318124205347
23.12570301771001,0.11174337727223123
23.12570301771001,0.11182819481844561
23.14314163378144,0.11187950619597604
23.14314163378144,0.11182619913106595
23.14314163378144,0.11160488292889685
23.14314163378144,0.11135931162819467
23.14314163378144,0.11108214511381269
23.14314163378144,0.11072527337586892
23.14314163378144,0.11024295599921953
23.14314163378144,0.10986013989148508
23.14314163378144,0.10971335930077407
23.14314163378144,0.10979487981600916
23.14314163378144,0.10997505980315825
23.14314163378144,0.11014393565877993
23.14314163378144,0.11036916611633943
23.14314163378144,0.11061032567658048
23.14314163378144,0.11080478627298493
23.14314163378144,0.11092914163006143
23.14314163378144,0.11105570988893028
23.14314163378144,0.11138934788441224
23.14314163378144,0.11186967579128351
23.14314163378144,0.11237033028246766
23.14314163378144,0.1127147181526584
23.14314163378144,0.11305884692333007
23.14314163378144,0.11338870441849706
23.14314163378144,0.11365383788289735
23.14314163378144,0.11395105175085761
23.14314163378144,0.11430826591170935
23.14314163378144,0.11463647252366341
23.14314163378144,0.11489645808379706
23.14314163378144,0.11506147536135486
23.14314163378144,0.11542117255178187
23.14314163378144,0.11579739025754118
23.160580249852867,0.11624584947397457
23.160580249852867,0.11673247058126461
23.160580249852867,0.11739931141376315
23.178018865924297,0.11774800331926184
23.178018865924297,0.11805389146389816
23.178018865924297,0.11845919567688334
23.178018865924297,0.119042475327945
23.178018865924297,0.1194807570920255
23.178018865924297,0.11999606028907296
23.178018865924297,0.12043602945547817
23.195457481995724,0.12089669897086784
23.195457481995724,0.12124477321440606
23.195457481995724,0.12154583300234045
23.195457481995724,0.1218662252880439
23.195457481995724,0.12216190256392702
23.195457481995724,0.12236148379190931
23.195457481995724,0.12275717135021838
23.195457481995724,0.12334644444957155
23.195457481995724,0.1241013996139894
23.195457481995724,0.12499326160571547
23.195457481995724,0.1257220848592064
23.195457481995724,0.12628464199828576
23.195457481995724,0.12682512311095717
23.195457481995724,0.12742141939361146
23.195457481995724,0.12806855968081282
23.195457481995724,0.12857347129085656
23.195457481995724,0.1290828233805209
23.195457481995724,0.1297096972924688
23.195457481995724,0.13032698439915943
23.195457481995724,0.13083615607643098
23.195457481995724,0.13125107562503788
23.195457481995724,0.1316684485312841
23.195457481995724,0.13221620328753067
23.195457481995724,0.1327616728025276
23.195457481995724,0.13324771255352483
23.195457481995724,0.13397079286067234
23.195457481995724,0.1349841139652301
23.195457481995724,0.13622203069370709
23.195457481995724,0.13756869969464888
23.195457481995724,0.138806946912684
23.195457481995724,0.1398414133542281
23.195457481995724,0.14081149565161777
23.195457481995724,0.1419897455005185
23.195457481995724,0.14352136177077915
23.195457481995724,0.14528983106245122
23.195457481995724,0.1472031086983936
23.195457481995724,0.14926014157855425
23.195457481995724,0.15118898581913634
23.195457481995724,0.15282545833097272
23.212896098067155,0.15429156972443794
23.212896098067155,0.15568675357230666
23.212896098067155,0.1569424190353885
23.212896098067155,0.15799866541309965
23.212896098067155,0.15881928227022718
23.212896098067155,0.15939182181664197
23.212896098067155,0.15979175096310277
23.212896098067155,0.1601345973511675
23.212896098067155,0.16043400382698825
23.212896098067155,0.16071262492866442
23.212896098067155,0.16073022962329797
23.212896098067155,0.16066123498128068
23.212896098067155,0.16053505288940262
23.212896098067155,0.16024387670202486
23.212896098067155,0.15960523121932238
23.212896098067155,0.15866301864426513
23.212896098067155,0.15761849412358864
23.195457481995724,0.15681208904716726
23.178018865924297,0.15621632936120053
23.178018865924297,0.15575521888601798
23.160580249852867,0.1554488620364787
23.14314163378144,0.15527262817658083
23.108264401638582,0.15512317297611025
23.090825785567155,0.15496363888162423
23.073387169495724,0.15494518026689932
23.055948553424297,0.15482358704489688
23.038509937352867,0.1547123220904072
23.02107132128144,0.1546134043344915
23.00363270521001,0.15434249358854235
22.986194089138582,0.1539058028234381
22.968755473067155,0.1533791141426568
22.968755473067155,0.15301617831432862
22.951316856995724,0.15265291497508326
22.951316856995724,0.15233513324319994
22.951316856995724,0.15224505253606746
22.933878240924297,0.1524453519699607
22.933878240924297,0.15283436169483963
22.933878240924297,0.15296901634566817
22.933878240924297,0.15300780807047634
22.933878240924297,0.15316967374780371
22.933878240924297,0.15346366828708585
22.933878240924297,0.15378746747400227
22.933878240924297,0.15427419924222704
22.916439624852867,0.15492343947425435
22.916439624852867,0.1553746990424539
22.916439624852867,0.155758249646021
22.89900100878144,0.15612846960329388
22.89900100878144,0.1564531226429645
22.89900100878144,0.15687897737085554
22.89900100878144,0.1571987700634575
22.89900100878144,0.15741944481492426
22.88156239271001,0.15758509310686936
22.88156239271001,0.15774821465555744
22.88156239271001,0.15770947717437672
22.88156239271001,0.15770085855850155
22.88156239271001,0.1575710314917139
22.88156239271001,0.1574120728737925
22.88156239271001,0.15709628062547576
22.88156239271001,0.15669121799261568
22.88156239271001,0.1562497573261666
22.88156239271001,0.15583657358573746
22.88156239271001,0.1554848498209137
22.89900100878144,0.15531661386225984
22.89900100878144,0.15523539192915886
22.89900100878144,0.15512017793155547
22.89900100878144,0.15485901463058743
22.89900100878144,0.1546032157065912
22.89900100878144,0.1542417710890571
22.89900100878144,0.1538401769879639
22.89900100878144,0.15319248741416752
22.89900100878144,0.15252106582118827
22.89900100878144,0.15194486255938194
22.89900100878144,0.15131214388156874
22.916439624852867,0.15073293144653688
22.916439624852867,0.1501963814659457
22.916439624852867,0.14949986343653862
22.916439624852867,0.14870637123350977
22.916439624852867,0.1478579509070338
22.916439624852867,0.14702540288664293
22.916439624852867,0.14634080693391613
22.89900100878144,0.145889465498337
22.89900100878144,0.1456736878938158
22.89900100878144,0.14560766187787172
22.88156239271001,0.14551100701820954
22.864123776638582,0.1454057070976386
22.864123776638582,0.14510830045037473
22.846685160567155,0.14451592743658725
22.829246544495724,0.14376855832574104
22.811807928424297,0.14293845542285444
22.794369312352867,0.1420949272633815
22.794369312352867,0.14134612789641834
22.77693069628144,0.140721646942714
22.75949208021001,0.1400296092015676
22.75949208021001,0.1390912234767233
22.742053464138582,0.13795798003530096
22.742053464138582,0.13675983828177088
22.742053464138582,0.13552281929734378
22.742053464138582,0.1342312795551094
22.742053464138582,0.13301335179491097
22.742053464138582,0.13198374513104488
22.742053464138582,0.1311767280398154
22.742053464138582,0.13055600347802135
22.742053464138582,0.1299759890677192
22.742053464138582,0.1294979214109473
22.742053464138582,0.12916287536360258
22.742053464138582,0.1289095516944298
22.742053464138582,0.12877677523592432
22.742053464138582,0.1287238047435819
22.742053464138582,0.1286688070817237
22.742053464138582,0.12854240488917634
22.742053464138582,0.1285336233846337
22.742053464138582,0.12855562725710784
22.75949208021001,0.12857604109389706
22.75949208021001,0.12868291452356986
22.75949208021001,0.12872600002433787
22.77693069628144,0.12888379552971657
22.77693069628144,0.12911004000018242
22.77693069628144,0.12920135533610166
22.77693069628144,0.1292255557399915
22.77693069628144,0.12923818083005487
22.77693069628144,0.1292190258329869
22.77693069628144,0.12910290938250069
22.77693069628144,0.12912047488956313
22.77693069628144,0.1291771774006068
22.77693069628144,0.12921417157460863
22.77693069628144,0.12926577687808527
22.77693069628144,0.12931649411215174
22.77693069628144,0.12925410739624907
22.77693069628144,0.12916255896131168
22.77693069628144,0.1290307268933055
22.77693069628144,0.12882784951647494
22.77693069628144,0.12843590929138995
22.77693069628144,0.12806851465131347
22.77693069628144,0.12790204404555713
22.77693069628144,0.12779677616443894
22.77693069628144,0.12768372452455756
22.77693069628144,0.1274635698455393
22.77693069628144,0.12726604098598537
22.77693069628144,0.12701319177019935
22.77693069628144,0.1267123852884919
22.77693069628144,0.12642090750183022
22.77693069628144,0.12612744956414718
22.77693069628144,0.12594024171710747
22.75949208021001,0.12592312184227172
22.75949208021001,0.12597302157210705
22.75949208021001,0.12596055828208383
22.742053464138582,0.12584619190700044
22.742053464138582,0.12574204146630039
22.742053464138582,0.12545909708529535
22.724614848067155,0.1250945838611408
22.724614848067155,0.12497831395158923
22.724614848067155,0.1251135391970553
22.724614848067155,0.1254055300039123
22.724614848067155,0.12579954731602108
22.724614848067155,0.12623717070941898
22.724614848067155,0.12669145656816458
22.724614848067155,0.12702890270822312
22.724614848067155,0.12731673509365082
22.724614848067155,0.12772715142803576
22.724614848067155,0.12818319605085718
22.724614848067155,0.12859973972702146
22.724614848067155,0.12884462415275683
22.724614848067155,0.12897712951091866
22.724614848067155,0.1290695288645143
22.724614848067155,0.12912156035306288
22.724614848067155,0.1293466113490066
22.724614848067155,0.12954000197191845
22.724614848067155,0.12971771564191412
22.724614848067155,0.1297098112652227
22.724614848067155,0.12978265338088793
22.724614848067155,0.12971820640217413
22.724614848067155,0.1296504384963317
22.724614848067155,0.12968954503732355
22.724614848067155,0.1297876071351537
22.724614848067155,0.12988745970288834
22.724614848067155,0.129898591662287
22.724614848067155,0.12991410358980832
22.724614848067155,0.1298951053402025
22.724614848067155,0.12980049226711976
22.724614848067155,0.12970862663415778
22.724614848067155,0.129483125298867
22.742053464138582,0.1290537336674178
22.742053464138582,0.1286904745584885
22.742053464138582,0.12838795542295214
22.742053464138582,0.12805038058378193
22.75949208021001,0.12781248119727873
22.75949208021001,0.12748240495255084
22.75949208021001,0.12695828555104574
22.77693069628144,0.12628760348031617
22.77693069628144,0.12555398473384705
22.77693069628144,0.12487602766671234
22.77693069628144,0.12433788779066611
22.77693069628144,0.12387980701941201
22.77693069628144,0.12356580092684581
22.77693069628144,0.12335887903728623
22.77693069628144,0.1229340018757451
22.77693069628144,0.1223135753209831
22.77693069628144,0.12157208595294729
22.77693069628144,0.12083333438890255
22.794369312352867,0.12011108493438728
22.794369312352867,0.11930114831594855
22.794369312352867,0.1187357795781037
22.794369312352867,0.11848817818279334
22.794369312352867,0.1186309375129515
22.794369312352867,0.11892909864446886
22.794369312352867,0.11908574932689697
22.794369312352867,0.11926091462858228
22.794369312352867,0.11936119035322405
22.794369312352867,0.11944411428665164
22.794369312352867,0.11981293527986148
22.794369312352867,0.12037253530656283
22.794369312352867,0.12107148783059404
22.77693069628144,0.12187815740690963
22.77693069628144,0.12256021471309367
22.77693069628144,0.1232375428511593
22.77693069628144,0.12373727489416837
22.77693069628144,0.12422792728756403
22.77693069628144,0.12474641873849512
22.794369312352867,0.1253912837005831
22.794369312352867,0.1259387031820873
22.794369312352867,0.12635142466075358
22.811807928424297,0.12672836715561572
22.829246544495724,0.12704991520567915
22.829246544495724,0.12741316098979874
22.846685160567155,0.12764730875800637
22.846685160567155,0.12789405249158073
22.846685160567155,0.12805447634398515
22.864123776638582,0.12819580605333664
22.864123776638582,0.12846643540894048
22.864123776638582,0.12880643737585895
22.864123776638582,0.12913013934139805
22.864123776638582,0.12935921525100824
22.864123776638582,0.1295574489993449
22.864123776638582,0.1295582470681604
22.864123776638582,0.12937647021290688
22.864123776638582,0.1291329149884912
22.864123776638582,0.12896742622401708
22.864123776638582,0.12879407227349038
22.864123776638582,0.12859471875707884
22.864123776638582,0.12827797149074596
22.864123776638582,0.12787388039635889
22.846685160567155,0.127443670091098
22.846685160567155,0.12684468882417568
22.846685160567155,0.12603644064488312
22.829246544495724,0.1255714684553948
22.829246544495724,0.12552713899266782
22.811807928424297,0.12585833622621354
22.811807928424297,0.12623881119734218
22.794369312352867,0.12655865566354546
22.77693069628144,0.12683430865187842
22.77693069628144,0.12689379770856557
22.75949208021001,0.12690583395333402
22.75949208021001,0.12693497712050061
22.742053464138582,0.12677871085376305
22.742053464138582,0.12669056144807425
22.742053464138582,0.12668996233451682
22.742053464138582,0.12673580985106514
22.742053464138582,0.1267251927331461
22.742053464138582,0.1265905152567065
22.742053464138582,0.12631427623103586
22.742053464138582,0.12612852731886978
22.75949208021001,0.1262701911885453
22.75949208021001,0.12675596503844078
22.75949208021001,0.12746476794865919
22.77693069628144,0.12808438002098077
22.77693069628144,0.12848456018294518
22.794369312352867,0.12887035709433817
22.811807928424297,0.12919987411927936
22.829246544495724,0.12953550194172642
22.829246544495724,0.12978019393505377
22.846685160567155,0.1301890153618609
22.864123776638582,0.13062165191161232
22.88156239271001,0.13090482363451358
22.89900100878144,0.13104249068512472
22.89900100878144,0.13106629337442474
22.916439624852867,0.13102973239635726
22.916439624852867,0.13090039196922154
22.933878240924297,0.13090361449104937
22.933878240924297,0.13102065050288195
22.933878240924297,0.13104785791353127
22.933878240924297,0.13117732505186563
22.933878240924297,0.13137136012480408
22.933878240924297,0.13131588915138617
22.933878240924297,0.13132700043156006
22.933878240924297,0.13133639023215404
22.933878240924297,0.13136315159956363
22.933878240924297,0.13139456104898226
22.933878240924297,0.13151316158470902
22.933878240924297,0.1317480758949881
22.933878240924297,0.1320516618601768
22.933878240924297,0.13234747223665913
22.933878240924297,0.13254229044268073
22.933878240924297,0.13283359362497515
22.933878240924297,0.13308355945779013
22.933878240924297,0.1330686605432611
22.933878240924297,0.1329960474186225
22.933878240924297,0.13298196513769775
22.933878240924297,0.13296562897549047
22.933878240924297,0.1329942613904414
22.933878240924297,0.13314576298577227
22.933878240924297,0.13334803239032003
22.933878240924297,0.13323893715910054
22.933878240924297,0.13293140086506547
22.933878240924297,0.13253682034887143
22.933878240924297,0.13205169300148428
22.933878240924297,0.13180550807633584
22.933878240924297,0.13175911254213976
22.933878240924297,0.13198896300667579
22.933878240924297,0.1323795442450707
22.933878240924297,0.13268529099243864
22.951316856995724,0.13271876384631978
22.951316856995724,0.1325029177351253
22.968755473067155,0.13214447166473775
22.986194089138582,0.13173092781857648
23.00363270521001,0.13134958308359385
23.038509937352867,0.13110708082992195
23.055948553424297,0.13090408759067976
23.073387169495724,0.1305779610581743
23.090825785567155,0.13024782608516938
23.108264401638582,0.13001296046883995
23.12570301771001,0.12988764098445596
23.14314163378144,0.12987678215944787
23.14314163378144,0.13001044183412808
23.14314163378144,0.13041210761165278
23.14314163378144,0.13128752282705
23.14314163378144,0.13224812601309502
23.14314163378144,0.1331114481774105
23.14314163378144,0.13399586000029445
23.14314163378144,0.13485042439089
23.14314163378144,0.1357739512877385
23.14314163378144,0.13699208838552715
23.14314163378144,0.13872622915634944
23.14314163378144,0.14090951444383948
23.14314163378144,0.14324617530414305
23.14314163378144,0.14544926773466624
23.14314163378144,0.14725871107838712
23.14314163378144,0.1490611602830484
23.14314163378144,0.15139991730161856
23.160580249852867,0.15393875857926922
23.160580249852867,0.1566827001041548
23.160580249852867,0.1598712416171768
23.160580249852867,0.16325545534608413
23.178018865924297,0.16649289809272572
23.178018865924297,0.16932175769751565
23.178018865924297,0.17154302431057658
23.195457481995724,0.17347502559045644
23.195457481995724,0.17540730818766082
23.212896098067155,0.1775992433845197
23.230334714138582,0.17999923115544275
23.247773330210013,0.18257792132114847
23.282650562352867,0.18525884989215863
23.317527794495724,0.18761370220763027
23.352405026638582,0.18942850386186724
23.38728225878144,0.191112484530368
23.439598106995724,0.19256031810858118
23.474475339138582,0.19380294352428556
23.526791187352867,0.1950873220234195
23.561668419495724,0.19643430271170254
23.596545651638582,0.19776621423740728
23.63142288378144,0.19906991507929156
23.666300115924297,0.2002816979854249
23.683738731995724,0.2011580692025074
23.701177348067155,0.20161782380569418
23.701177348067155,0.20177647599543724
23.718615964138582,0.20199982937245603
23.718615964138582,0.20239677026333544
23.718615964138582,0.2028425180416894
23.718615964138582,0.20333829553439547
23.718615964138582,0.20384797184033093
23.718615964138582,0.20431034262504785
23.718615964138582,0.20453970875316807
23.701177348067155,0.20473210018253876
23.683738731995724,0.2052000522736599
23.683738731995724,0.20566637517129388
23.666300115924297,0.205981695661977
23.63142288378144,0.20628867746296678
23.613984267710013,0.2065454298338576
23.579107035567155,0.20663795716297184
23.544229803424297,0.20657108527479967
23.526791187352867,0.20646146209888222
23.491913955210013,0.20630847995149398
23.457036723067155,0.2063038526594696
23.422159490924297,0.20646265196383515
23.404720874852867,0.20643711430651412
23.38728225878144,0.2065319282664877
23.352405026638582,0.20673322762733892
23.334966410567155,0.20692782478648003
23.317527794495724,0.20710357258126952
23.282650562352867,0.20712563719814256
23.26521194628144,0.2070869016033283
23.247773330210013,0.20718021339612044
23.230334714138582,0.2072403902986959
23.212896098067155,0.20729760126882632
23.195457481995724,0.2073771673138187
23.178018865924297,0.20744450429337433
23.178018865924297,0.20761008804372438
23.160580249852867,0.20769258509872696
23.14314163378144,0.20793589983104177
23.14314163378144,0.20814938992606258
23.12570301771001,0.20823532983970633
23.12570301771001,0.2081777880666732
23.12570301771001,0.20818581492406837
23.108264401638582,0.20819731155666152
23.108264401638582,0.20790065169005786
23.108264401638582,0.20761290585698958
23.090825785567155,0.2071818154666031
23.090825785567155,0.2064575304043178
23.090825785567155,0.20553040529357353
23.090825785567155,0.20450373195171617
23.090825785567155,0.20345887633466955
23.073387169495724,0.20244648479495259
23.073387169495724,0.20154143592483234
23.073387169495724,0.2007226194807866
23.073387169495724,0.20009737901708294
23.073387169495724,0.19949437939662465
23.073387169495724,0.19887111333196217
23.073387169495724,0.19812279594407844
23.073387169495724,0.1974224548262331
23.073387169495724,0.1965907318045473
23.073387169495724,0.19578480803815507
23.073387169495724,0.19492458895308956
23.073387169495724,0.19414367790934312
23.073387169495724,0.1932247935168463
23.073387169495724,0.19194552705578666
23.073387169495724,0.1902833229830205
23.073387169495724,0.18857249556753095
23.073387169495724,0.18717923526859037
23.073387169495724,0.18594055978860635
23.073387169495724,0.1846762157238082
23.073387169495724,0.18326792032330239
23.073387169495724,0.18167757848628466
23.073387169495724,0.1796267639970312
23.073387169495724,0.17724514228482807
23.073387169495724,0.17490759094697025
23.073387169495724,0.17271834552414822
23.073387169495724,0.1708090597998584
23.073387169495724,0.16884412061674756
23.073387169495724,0.1663463052347603
23.073387169495724,0.16372778799253426
23.073387169495724,0.16096218692765585
23.073387169495724,0.15795800925051526
23.073387169495724,0.15475681281765122
23.073387169495724,0.15170361688744857
23.073387169495724,0.14896184406589122
23.073387169495724,0.14662852587023958
23.073387169495724,0.1443210199629031
23.073387169495724,0.1416796894509878
23.073387169495724,0.1387733171855765
23.055948553424297,0.13578892980295634
23.055948553424297,0.1327941432679732
23.038509937352867,0.1298620189802384
23.038509937352867,0.12704244305877704
23.02107132128144,0.12463177785446183
23.00363270521001,0.12247743795964064
23.00363270521001,0.12059163264023907
22.986194089138582,0.11889929066527766
22.986194089138582,0.1171570666768749
22.968755473067155,0.1154749293451249
22.968755473067155,0.11389569812936241
22.951316856995724,0.11237551308205118
22.951316856995724,0.11094325962540857
22.933878240924297,0.10956756159255522
22.933878240924297,0.1082836569957997
22.916439624852867,0.10705734207746972
22.89900100878144,0.10591032369003525
22.89900100878144,0.10471992608665673
22.88156239271001,0.10346546277486605
22.864123776638582,0.10218141649737945
22.864123776638582,0.1009708432070165
22.846685160567155,0.10003330478475235
22.829246544495724,0.09929022821252712
22.811807928424297,0.0985463860553369
22.811807928424297,0.0976388910044907
22.794369312352867,0.09675500678685414
22.77693069628144,0.09602603931129372
22.77693069628144,0.09532419221610185
22.75949208021001,0.09470961967417915
22.75949208021001,0.09426087450363624
22.75949208021001,0.09387165228764761
22.742053464138582,0.09349998998857036
22.742053464138582,0.09326925368502581
22.724614848067155,0.09310065351183573
22.724614848067155,0.09291778542627716
22.707176231995724,0.09278311137583695
22.707176231995724,0.09268021527731575
22.689737615924297,0.09247957656208418
22.672298999852867,0.09245586206993825
22.672298999852867,0.09260053465200692
22.672298999852867,0.09301699485868123
22.65486038378144,0.0935602660759381
22.65486038378144,0.09385450802303179
22.65486038378144,0.09416571249416611
22.65486038378144,0.0945867877291245
22.65486038378144,0.09518670270621205
22.65486038378144,0.09584259298246585
22.65486038378144,0.09651346063734427
22.65486038378144,0.09722039094079735
22.65486038378144,0.0977321164951551
22.65486038378144,0.09837272320501458
22.65486038378144,0.09924467940013813
22.65486038378144,0.10025099759293682
22.65486038378144,0.10125189881020563
22.65486038378144,0.10207641596043507
22.65486038378144,0.10296008295814156
22.65486038378144,0.1037566039592024
22.65486038378144,0.10451436641484466
22.65486038378144,0.10525738778117269
22.672298999852867,0.10608723982336792
22.672298999852867,0.10687377951290612
22.689737615924297,0.1075914308584905
22.689737615924297,0.10851563738201644
22.707176231995724,0.1095061146594398
22.707176231995724,0.11057759792005832
22.724614848067155,0.11159503344055248
22.724614848067155,0.11255100861212224
22.742053464138582,0.11347791458684751
22.742053464138582,0.11449950789378775
22.742053464138582,0.11577965964347148
22.742053464138582,0.11738955989006183
22.742053464138582,0.11913632167449316
22.742053464138582,0.12091348540548134
22.742053464138582,0.1224409112789957
22.742053464138582,0.12388639534640863
22.742053464138582,0.12541194038208026
22.75949208021001,0.12696010181262224
22.75949208021001,0.12836748518604751
22.75949208021001,0.12945041440181776
22.75949208021001,0.13036645694601098
22.75949208021001,0.13119760910297237
22.75949208021001,0.13200546049736264
22.75949208021001,0.13277219960387637
22.75949208021001,0.13352757241692623
22.75949208021001,0.1341652936908586
22.75949208021001,0.13458787564989774
22.75949208021001,0.13486566035053296
22.742053464138582,0.13512482185454217
22.742053464138582,0.13531107013783794
22.742053464138582,0.13557940160061666
22.742053464138582,0.1357610854639925
22.742053464138582,0.13589896617540573
22.742053464138582,0.13582652561255265
22.742053464138582,0.1357723154341099
22.742053464138582,0.1357284090860114
22.742053464138582,0.13575664239616025
22.742053464138582,0.13579731116435673
22.724614848067155,0.13595537301667107
22.724614848067155,0.13646139821500397
22.707176231995724,0.13705903280756607
22.707176231995724,0.13775986780805946
22.689737615924297,0.13860302165225352
22.689737615924297,0.13920316870577817
22.672298999852867,0.13987513699145035
22.672298999852867,0.14046220825324282
22.65486038378144,0.14105404895135604
22.65486038378144,0.14187601222028295
22.65486038378144,0.14281902623262968
22.65486038378144,0.14395582478124172
22.65486038378144,0.14523101867030505
22.65486038378144,0.14659719902983703
22.672298999852867,0.14799338732997833
22.672298999852867,0.1492182185188555
22.689737615924297,0.15033338397165746
22.689737615924297,0.1513010221369917
22.707176231995724,0.15216579297016752
22.707176231995724,0.15283178203252576
22.724614848067155,0.1534507034386482
22.742053464138582,0.1541670344619709
22.742053464138582,0.1548965712501488
22.75949208021001,0.15558977545325892
22.77693069628144,0.1561361445876205
22.77693069628144,0.15653144126167096
22.794369312352867,0.15690490846362887
22.794369312352867,0.157183655898516
22.811807928424297,0.1575071604258519
22.811807928424297,0.1577348379379542
22.811807928424297,0.1579910172300963
22.829246544495724,0.15825514792896164
22.829246544495724,0.158440985675128
22.829246544495724,0.1585697874982402
22.829246544495724,0.1586850987874787
22.829246544495724,0.15873577836185582
22.829246544495724,0.15862941243973275
22.829246544495724,0.15843114404732198
22.829246544495724,0.1581434495644648
22.829246544495724,0.15779663390489332
22.829246544495724,0.15751867949877899
22.829246544495724,0.15725570315046358
22.811807928424297,0.15677610451510474
22.811807928424297,0.15600144816515676
22.811807928424297,0.1551950045205161
22.794369312352867,0.15452535758408947
22.794369312352867,0.15382807084911804
22.794369312352867,0.15323774423295625
22.77693069628144,0.1526234424659106
22.77693069628144,0.15220179646150706
22.75949208021001,0.15182902892473135
22.75949208021001,0.15139099907913323
22.75949208021001,0.1510962595227824
22.742053464138582,0.15056182888300418
22.742053464138582,0.14974392724470376
22.742053464138582,0.14888452475460837
22.742053464138582,0.14802744434946002
22.742053464138582,0.14738851827388902
22.742053464138582,0.14676038421993762
22.742053464138582,0.14621947763388138
22.742053464138582,0.14589623592518075
22.742053464138582,0.1458519004186002
22.742053464138582,0.14577110490799017
22.75949208021001,0.14574721707344115
22.75949208021001,0.14577637720203454
22.77693069628144,0.14578797288026857
22.794369312352867,0.1457837605531792
22.811807928424297,0.14561822629473628
22.811807928424297,0.14548633530588767
22.846685160567155,0.1454561343924864
22.864123776638582,0.14539904634386278
22.88156239271001,0.14524268663135148
22.89900100878144,0.14493533691352883
22.916439624852867,0.14433706689405096
22.933878240924297,0.14344584067339589
22.951316856995724,0.1424472038716813
22.968755473067155,0.1415923760626382
22.986194089138582,0.14071682986262438
23.00363270521001,0.13969019082167444
23.00363270521001,0.138700908067632
23.02107132128144,0.1379600897218063
23.02107132128144,0.13737575067150065
23.02107132128144,0.13691271173716307
23.02107132128144,0.13654785657907176
23.038509937352867,0.1361865279524146
23.038509937352867,0.13581982828217315
23.038509937352867,0.13560027221176835
23.038509937352867,0.13547713463902902
23.02107132128144,0.1354841086751261
23.02107132128144,0.135563017143551
23.02107132128144,0.13556811679638342
23.02107132128144,0.1357606947651826
23.02107132128144,0.13632525028866435
23.02107132128144,0.13739792545511043
23.00363270521001,0.13860686337834938
23.00363270521001,0.13980171903270194
23.00363270521001,0.14099488697318174
23.00363270521001,0.14200770296336357
23.00363270521001,0.14292045805765222
22.986194089138582,0.1437498722128245
22.986194089138582,0.14453723850716707
22.986194089138582,0.14515614649238787
22.986194089138582,0.14563992149158658
22.986194089138582,0.14600512856117792
22.986194089138582,0.1461262953925601
22.986194089138582,0.1463159119470541
22.986194089138582,0.14631872016641118
22.986194089138582,0.14626448486852006
22.986194089138582,0.14611252368635558
22.986194089138582,0.14575053889584502
22.986194089138582,0.14538813149063554
22.986194089138582,0.145098585919697
22.986194089138582,0.1446786931480398
22.986194089138582,0.1440804527394858
22.986194089138582,0.14363114769991223
23.00363270521001,0.143364712617421
23.00363270521001,0.14317069741036642
23.00363270521001,0.14296800755214228
23.02107132128144,0.14270563062505306
23.02107132128144,0.14244812908598528
23.02107132128144,0.14220417066957425
23.038509937352867,0.1418344616104293
23.038509937352867,0.1414766990431364
23.055948553424297,0.14116630941226027
23.073387169495724,0.14099804272884675
23.073387169495724,0.14114689568252456
23.090825785567155,0.1415848184189596
23.108264401638582,0.14223956899893864
23.108264401638582,0.14276475760685728
23.12570301771001,0.14326001036179656
23.14314163378144,0.1438571050287419
23.14314163378144,0.14473689745555524
23.160580249852867,0.14582351044437472
23.178018865924297,0.14710846897024973
23.212896098067155,0.14863419433884975
23.230334714138582,0.15025514990496477
23.26521194628144,0.15187148061759329
23.300089178424297,0.15344031400114644
23.334966410567155,0.1548882747885318
23.369843642710013,0.15623660551280363
23.404720874852867,0.15736709535214827
23.439598106995724,0.15824354499662094
23.474475339138582,0.15901342877820884
23.491913955210013,0.15969350679882546
23.50935257128144,0.16020120690019293
23.526791187352867,0.16060198464767364
23.544229803424297,0.16099320219853128
23.561668419495724,0.16100594252555314
23.561668419495724,0.16076533362456033
23.561668419495724,0.16028755514491677
23.561668419495724,0.1598465681851126
23.561668419495724,0.15961081273378883
23.561668419495724,0.15928510743697244
23.561668419495724,0.15916653321671267
23.544229803424297,0.1594278584106664
23.526791187352867,0.15986202569459973
23.50935257128144,0.16052438269545227
23.474475339138582,0.16123769149621955
23.439598106995724,0.16182717918253509
23.422159490924297,0.16226738606896907
23.38728225878144,0.16256164355582214
23.352405026638582,0.1627269879893024
23.334966410567155,0.16292218469818467
23.300089178424297,0.16326509806430373
23.282650562352867,0.16375682556256088
23.26521194628144,0.1641792387094298
23.26521194628144,0.1644849476509868
23.247773330210013,0.1648253933155756
23.247773330210013,0.16506770749964306
23.247773330210013,0.16565749436686628
23.230334714138582,0.16637873223486715
23.230334714138582,0.16710963342544294
23.230334714138582,0.16767772281727364
23.230334714138582,0.1680828020980463
23.230334714138582,0.16856517130230417
23.230334714138582,0.16915250182832375
23.230334714138582,0.16978241766111637
23.247773330210013,0.17064108995750474
23.247773330210013,0.17177827490706676
23.247773330210013,0.17295249819761008
23.247773330210013,0.1738853977919116
23.247773330210013,0.1749606031299079
23.26521194628144,0.17610040707472963
23.26521194628144,0.17736487808600665
23.282650562352867,0.178884982074281
23.300089178424297,0.18046852976529038
23.317527794495724,0.18204570022626135
23.334966410567155,0.18341937727394772
23.352405026638582,0.18451286435124045
23.369843642710013,0.18562334549424142
23.38728225878144,0.1871226564526298
23.404720874852867,0.1888327540886168
23.439598106995724,0.1904017491875676
23.457036723067155,0.19167529497193583
23.491913955210013,0.19287092465442976
23.526791187352867,0.19389389078273678
23.561668419495724,0.1946955417435256
23.596545651638582,0.19536942018636053
23.63142288378144,0.19588435805053697
23.666300115924297,0.19620559021423326
23.701177348067155,0.19613703314593495
23.736054580210013,0.19580189428446645
23.770931812352867,0.19553566969976982
23.788370428424297,0.19534550605010534
23.805809044495724,0.19510477868728232
23.805809044495724,0.1947678848029291
23.823247660567155,0.19457210218201118
23.823247660567155,0.19444350524506004
23.823247660567155,0.19429847112680404
23.823247660567155,0.19397079686568613
23.823247660567155,0.19340306288224252
23.805809044495724,0.19261378198464327
23.805809044495724,0.19176487937211645
23.788370428424297,0.1909380008099048
23.770931812352867,0.1899637075648518
23.75349319628144,0.18901787391774164
23.718615964138582,0.18832836679940496
23.701177348067155,0.18792936801008947
23.666300115924297,0.18769172906064302
23.63142288378144,0.1875712377952037
23.596545651638582,0.18744204370318332
23.561668419495724,0.18756136472349
23.526791187352867,0.187728568094891
23.491913955210013,0.1877966536682144
23.457036723067155,0.18789943459045547
23.439598106995724,0.1878967225767224
23.404720874852867,0.18760558547530018
23.369843642710013,0.18717205329495767
23.352405026638582,0.1871193987467119
23.334966410567155,0.18727769812985323
23.300089178424297,0.1873750015590554
23.282650562352867,0.18718913714533736
23.26521194628144,0.18670569706361612
23.247773330210013,0.18600265665412952
23.230334714138582,0.18503422692621657
23.212896098067155,0.1838196225929699
23.195457481995724,0.18264652263836043
23.195457481995724,0.1816505471323369
23.178018865924297,0.1808335148800407
23.160580249852867,0.18009879620453662
23.14314163378144,0.17943022517783294
23.12570301771001,0.17883217336317464
23.12570301771001,0.17830430270654468
23.108264401638582,0.17794701696714021
23.090825785567155,0.1777872029657387
23.090825785567155,0.17779290649728982
23.073387169495724,0.17789508557412334
23.055948553424297,0.17800901939952352
23.055948553424297,0.17826964089707117
23.038509937352867,0.17873064067455158
23.038509937352867,0.17926700043522142
23.02107132128144,0.17973080332138677
23.02107132128144,0.1802922688876856
23.00363270521001,0.1806987109442295
23.00363270521001,0.18071538770136905
22.986194089138582,0.18043010381404465
22.986194089138582,0.17987488640139018
22.968755473067155,0.17909381865968865
22.968755473067155,0.17848851394215728
22.968755473067155,0.17797547797762905
22.951316856995724,0.17756928760174115
22.951316856995724,0.17706333540406702
22.951316856995724,0.1765646434652228
22.951316856995724,0.17596506388432553
22.951316856995724,0.17518496374589299
22.951316856995724,0.17422042244942867
22.951316856995724,0.1733535559857358
22.951316856995724,0.1724403195277872
22.951316856995724,0.171633665504696
22.951316856995724,0.1706354600870389
22.951316856995724,0.1695625146642725
22.951316856995724,0.16848516944784525
22.951316856995724,0.16740020230774824
22.951316856995724,0.16638772113947342
22.951316856995724,0.16541911504115106
22.951316856995724,0.16457056291203595
22.951316856995724,0.16382029373020734
22.951316856995724,0.16296621845874912
22.951316856995724,0.16188566106599922
22.951316856995724,0.1607080812875243
22.951316856995724,0.1596976979634594
22.951316856995724,0.15855764008117595
22.933878240924297,0.15725082626837086
22.933878240924297,0.1557182485243463
22.933878240924297,0.15396966585941166
22.933878240924297,0.1521823184140955
22.916439624852867,0.15022092251018593
22.916439624852867,0.14841843475135486
22.916439624852867,0.14678643014340687
22.89900100878144,0.14514062404312866
22.89900100878144,0.1431552481622533
22.88156239271001,0.14077209639290297
22.88156239271001,0.13818536526923766
22.864123776638582,0.1353714674141889
22.864123776638582,0.13258139098527003
22.846685160567155,0.13010633294143054
22.846685160567155,0.12788793597541248
22.829246544495724,0.12593776542474625
22.811807928424297,0.12431627892133412
22.811807928424297,0.1227885816932632
22.794369312352867,0.12147163758643688
22.77693069628144,0.12043226191373069
22.77693069628144,0.11951086189423263
22.75949208021001,0.11849056183762187
22.75949208021001,0.11752773612260968
22.75949208021001,0.1166648550884737
22.742053464138582,0.11593586957962633
22.742053464138582,0.1152651341841637
22.742053464138582,0.11465903092199732
22.724614848067155,0.11421973915792258
22.724614848067155,0.11385184239056782
22.724614848067155,0.11365196088588604
22.724614848067155,0.11354958218010994
22.724614848067155,0.11348002435272393
22.724614848067155,0.11336676312838903
22.724614848067155,0.11327337294836264
22.724614848067155,0.11304100635665137
22.724614848067155,0.11273238911942374
22.724614848067155,0.11235331524654386
22.724614848067155,0.11194256868282697
22.724614848067155,0.11164491825985677
22.724614848067155,0.11135261881668358
22.742053464138582,0.11113532568501522
22.742053464138582,0.1112327306165137
22.742053464138582,0.11116475540642483
22.742053464138582,0.11090704451421984
22.742053464138582,0.11060308322686037
22.742053464138582,0.11031059716979932
22.742053464138582,0.10975378061688189
22.742053464138582,0.1090957853676937
22.742053464138582,0.10841081620592433
22.742053464138582,0.1077320881009569
22.742053464138582,0.1072011888611737
22.742053464138582,0.10669591372505632
22.742053464138582,0.1062173623916132
22.742053464138582,0.10582939080088936
22.742053464138582,0.10549303375205042
22.742053464138582,0.10506824209559537
22.742053464138582,0.10466639835478583
22.742053464138582,0.10430412863649476
22.742053464138582,0.10405437983534528
22.742053464138582,0.10413172993774826
22.75949208021001,0.10446257549866093
22.75949208021001,0.10474202595660734
22.75949208021001,0.1049715587125091
22.77693069628144,0.10540457862250818
22.77693069628144,0.10572776822119487
22.77693069628144,0.10618587518813788
22.77693069628144,0.1065719263411991
22.77693069628144,0.10669049054301669
22.77693069628144,0.10654756453559003
22.77693069628144,0.10627305710546853
22.77693069628144,0.10597534123867168
22.77693069628144,0.10572326609917951
22.77693069628144,0.10564166214551156
22.794369312352867,0.1055157283528354
22.794369312352867,0.10533585961911437
22.794369312352867,0.10516421213376544
22.811807928424297,0.1050707645532014
22.811807928424297,0.10519662266819377
22.829246544495724,0.10528853266699939
22.829246544495724,0.10540421065029945
22.846685160567155,0.105397847202457
22.846685160567155,0.1052828671697113
22.864123776638582,0.10535028357774016
22.864123776638582,0.10564350229027863
22.88156239271001,0.10587260909250076
22.89900100878144,0.10610810208950068
22.916439624852867,0.10650070984930061
22.933878240924297,0.10683574628624555
22.933878240924297,0.107136058376371
22.951316856995724,0.10735262831998389
22.968755473067155,0.107595759042673
22.986194089138582,0.1078280044274682
22.986194089138582,0.10823599988315888
23.00363270521001,0.10866606200421798
23.00363270521001,0.10910621849910869
23.00363270521001,0.10969339938357281
23.00363270521001,0.11028350768740303
23.00363270521001,0.11089883367647523
23.00363270521001,0.1117608546057027
23.00363270521001,0.11272283066856993
23.00363270521001,0.11369908275796295
23.00363270521001,0.11482917448216666
23.00363270521001,0.11606720429957498
23.00363270521001,0.11726749070555498
23.02107132128144,0.11872433538499948
23.02107132128144,0.12032114012774954
23.02107132128144,0.12212325463059957
23.038509937352867,0.12414615865972711
23.038509937352867,0.1263091795125044
23.055948553424297,0.12829557113156645
23.073387169495724,0.1301040755418473
23.108264401638582,0.13185318947203756
23.12570301771001,0.1335476312670213
23.14314163378144,0.13514587107000667
23.178018865924297,0.136627621853631
23.195457481995724,0.1379026038088929
23.212896098067155,0.13890055143581612
23.230334714138582,0.13987011543285952
23.230334714138582,0.1407176986161361
23.247773330210013,0.14146160258264748
23.247773330210013,0.14199256634782023
23.247773330210013,0.1425870108849132
23.247773330210013,0.1431873185854844
23.247773330210013,0.14378069610193595
23.247773330210013,0.14423783156986736
23.247773330210013,0.14456868708475562
23.230334714138582,0.14486767775128004
23.230334714138582,0.14508244806208953
23.212896098067155,0.1452964932949431
23.195457481995724,0.14530785959044878
23.178018865924297,0.1452558333970289
23.160580249852867,0.14532314556513853
23.12570301771001,0.14552654878206217
23.108264401638582,0.14559974839604348
23.090825785567155,0.14561863097831415
23.055948553424297,0.14555383819298273
23.038509937352867,0.14547843484243445
23.02107132128144,0.14548503471756602
23.00363270521001,0.1456618730426844
22.986194089138582,0.14574900605091598
22.968755473067155,0.1460074794692619
22.951316856995724,0.14653368464733574
